[CRDS Header]
FileType=Wavelength Monitor Calibration
Filename=C:\Picarro\G2000\InstrConfig\Integration\Laser_16049455_HF.wlm
Date=20170523
Time=135145

[Parameters]
laser_current=36000.00
etalon1_offset=6518.91
reference1_offset=6522.04
etalon2_offset=6500.26
reference2_offset=6516.38

[Data column names]
0=Laser temperature
1=Wavenumber
2=Wavelength ratio 1
3=Wavelength ratio 2
4=Etalon temperature
5=Etalon 1 (offset removed)
6=Reference 1 (offset removed)
7=Etalon 2 (offset removed)
8=Reference 2 (offset removed)
9=Points averaged

[Data]
    5.000   7825.87296   0.74094   1.71798    44.935   4294.29   5795.76   6324.94   3681.62   5
    5.502   7825.57238   1.57129   1.32024    44.935   6617.89   4211.76   5621.34   4257.82   5
    6.004   7825.27534   1.55414   0.40749    44.935   6688.93   4303.96   2637.57   6472.95   6
    6.505   7824.97904   0.71553   0.04604    44.934   4393.84   6140.71    378.99   8232.37   4
    7.007   7824.68167   0.05067   0.60914    44.934    464.93   9176.29   3711.74   6093.45   6
    7.502   7824.38556   0.29623   1.49757    44.934   2379.59   8033.46   6507.57   4345.45   6
    8.003   7824.08819   1.19332   1.66091    44.934   6398.69   5362.16   6987.14   4206.82   5
    8.504   7823.79018   1.70441   0.88307    44.934   7768.93   4558.13   5052.40   5721.62   6
    9.005   7823.49241   1.20776   0.11920    44.934   6634.38   5493.25   1030.17   8642.62   7
    9.504   7823.19304   0.30580   0.21572    44.934   2579.34   8434.96   1762.74   8171.62   4
   10.004   7822.89687   0.05036   1.07456    44.935    498.59   9901.46   5752.49   5353.37   4
   10.507   7822.59869   0.72001   1.72014    44.935   4818.59   6690.63   7233.40   4205.12   5
   11.007   7822.30139   1.55934   1.35529    44.934   7335.23   4704.10   6330.74   4671.19   7
   11.508   7822.00388   1.57592   0.43458    44.935   7195.89   4566.16   2956.74   6803.82   5
   12.011   7821.70481   0.74288   0.04332    44.935   4586.69   6174.36    363.14   8382.02   5
   12.511   7821.40597   0.05678   0.58733    44.935    501.69   8835.56   3494.14   5949.42   5
   13.011   7821.10713   0.28485   1.48868    44.935   2118.69   7439.16   5956.14   4001.02   5
   13.512   7820.80935   1.18180   1.66608    44.935   5592.89   4732.76   6134.54   3682.02   5
   14.014   7820.51091   1.70066   0.88977    44.935   6563.93   3859.63   4285.40   4816.45   6
   14.513   7820.21418   1.22045   0.12647    44.935   5499.95   4506.67    895.02   7077.76   7
   15.014   7819.91770   0.31792   0.20502    44.935   2172.52   6833.96   1377.45   6698.19   6
   15.511   7819.62073   0.04391   1.04839    44.936    357.49   8141.56   4630.34   4423.82   4
   16.011   7819.32279   0.69845   1.71322    44.936   3934.89   5633.96   6010.34   3508.22   5
   16.511   7819.02665   1.54816   1.37026    44.936   6273.84   4052.46   5460.24   3984.87   4
   17.011   7818.72832   1.58983   0.45527    44.936   6467.29   4067.96   2742.14   6024.02   5
   17.514   7818.42988   0.76259   0.04171    44.936   4375.93   5738.46    328.57   7877.95   6
   18.011   7818.13184   0.06496   0.56372    44.936    561.76   8649.63   3349.57   5942.62   6
   18.512   7817.83406   0.27532   1.47758    44.936   2129.69   7735.96   6152.34   4163.82   5
   19.012   7817.53616   1.16522   1.67598    44.936   5986.26   5137.63   6647.40   3966.29   6
   19.510   7817.24075   1.70829   0.92751    44.936   7330.89   4291.36   4904.74   5288.42   5
   20.011   7816.94348   1.25162   0.13890    44.936   6336.29   5062.56   1109.94   7991.62   5
   20.509   7816.64854   0.34789   0.18431    44.936   2662.34   7653.21   1428.99   7753.37   4
   21.012   7816.35060   0.03883   1.02260    44.936    357.89   9217.96   5167.14   5053.02   5
   21.511   7816.05260   0.66817   1.70575    44.936   4214.69   6307.96   6626.54   3884.82   5
   22.010   7815.75502   1.53188   1.39340    44.936   6654.93   4344.29   5868.90   4211.95   6
   22.508   7815.45719   1.60126   0.47907    44.936   6606.43   4125.79   2898.90   6051.45   6
   23.007   7815.16128   0.79460   0.03964    44.936   4357.49   5483.96    302.94   7641.82   5
   23.507   7814.86384   0.07700   0.52709    44.936    610.29   7925.96   2935.94   5570.22   5
   24.005   7814.56830   0.23756   1.43348    44.936   1654.26   6963.96   5308.07   3702.95   6
   24.505   7814.27267   1.10915   1.68925    44.936   4917.09   4433.21   5613.99   3323.37   4
   25.005   7813.97549   1.69023   0.97624    44.936   5969.26   3531.63   4127.07   4227.62   6
   25.505   7813.67829   1.28411   0.16274    44.936   5169.49   4025.76   1027.74   6315.22   5
   26.004   7813.38065   0.37717   0.16264    44.936   2286.09   6061.36   1023.34   6292.22   5
   26.503   7813.08274   0.03113   0.97847    44.936    235.09   7552.46   4071.74   4161.37   4
   27.004   7812.78444   0.62619   1.69376    44.936   3360.09   5365.96   5482.07   3236.62   6
   27.503   7812.48980   1.49569   1.43247    44.936   5692.26   3805.79   5135.07   3584.79   6
   28.004   7812.19216   1.61817   0.51994    44.936   6010.09   3714.13   2782.90   5352.45   6
   28.503   7811.89689   0.85373   0.04007    44.936   4334.69   5077.56    290.14   7241.02   5
   29.002   7811.59965   0.09680   0.48321    44.936    757.09   7820.96   2749.24   5689.62   4
   29.503   7811.30244   0.21178   1.40501    44.936   1567.76   7403.13   5501.24   3915.45   6
   30.002   7811.00667   1.07438   1.70670    44.936   5248.43   4885.13   6126.40   3589.62   6
   30.501   7810.70867   1.69387   1.02493    44.936   6676.49   3941.56   4745.14   4629.82   5
   31.003   7810.41026   1.33125   0.18726    44.936   5956.09   4474.10   1316.59   7031.19   7
   31.502   7810.11539   0.42157   0.13863    44.936   2811.23   6668.96   1000.31   7216.19   7
   32.003   7809.81708   0.02477   0.92830    44.936    208.59   8422.46   4400.24   4740.12   4
   32.502   7809.52098   0.57575   1.67689    44.936   3430.09   5957.76   5920.14   3530.42   5
   33.002   7809.22464   1.46326   1.47608    44.936   5859.09   4004.16   5429.34   3678.22   5
   33.502   7808.92984   1.64722   0.57576    44.936   6032.59   3662.29   2984.24   5183.29   6
   34.002   7808.63353   0.91166   0.04354    44.936   4284.43   4699.63    299.07   6869.29   6
   34.501   7808.33739   0.12541   0.42558    44.936    869.09   6930.36   2259.94   5310.42   5
   35.001   7808.03989   0.17392   1.34725    44.936   1142.26   6568.13   4665.40   3462.95   6
   35.502   7807.74198   1.01234   1.71638    44.936   4246.93   4195.29   5139.90   2994.62   6
   36.003   7807.44451   1.67864   1.07567    44.936   5434.66   3237.53   3987.59   3707.19   7
   36.501   7807.14827   1.37775   0.22301    44.937   4906.09   3560.96   1243.49   5576.12   4
   37.003   7806.85383   0.47482   0.11144    44.937   2501.69   5268.76    665.54   5972.22   5
   37.502   7806.55916   0.02037   0.85250    44.937    142.69   7003.96   3458.74   4057.22   5
   38.003   7806.26419   0.50597   1.64477    44.937   2670.26   5277.63   5007.40   3044.45   6
   38.502   7805.96742   1.40632   1.52900    44.937   5114.26   3636.63   4911.57   3212.29   6
   39.003   7805.67102   1.67156   0.64316    44.937   5655.09   3383.13   3002.40   4668.29   6
   39.502   7805.37394   0.98153   0.05219    44.937   4361.52   4443.67    347.02   6649.05   7
   40.002   7805.07807   0.15816   0.37439    44.937   1094.29   6919.16   2085.54   5570.62   5
   40.502   7804.78267   0.13433   1.28415    44.937    958.89   7138.76   4823.54   3756.22   5
   41.002   7804.48706   0.93560   1.73073    44.937   4430.09   4735.10   5641.02   3259.33   7
   41.502   7804.19219   1.65799   1.16739    44.937   6018.43   3629.96   4642.94   3977.22   5
   42.002   7803.89839   1.45610   0.28674    44.937   5633.29   3868.76   1715.34   5982.42   5
   42.502   7803.60295   0.56556   0.07835    44.937   3144.76   5560.63    528.07   6739.79   6
   43.002   7803.30808   0.02435   0.75587    44.937    183.59   7539.21   3450.99   4565.62   4
   43.503   7803.01228   0.42140   1.59834    44.937   2422.93   5749.79   5135.40   3212.95   6
   44.002   7802.71614   1.32718   1.59067    44.937   4942.89   3724.36   4972.14   3125.82   5
   44.501   7802.42220   1.68934   0.74919    44.937   5381.23   3185.10   3142.45   4194.62   6
   45.001   7802.12686   1.08525   0.07762    44.937   4165.23   3838.10    455.88   5873.62   7
   45.500   7801.83346   0.22620   0.28695    44.937   1290.49   5705.16   1437.34   5009.22   5
   46.001   7801.53852   0.08214   1.16806    44.937    502.09   6112.96   3770.94   3228.42   5
   46.502   7801.24265   0.80741   1.72716    44.937   3239.09   4011.79   4496.57   2603.45   6
   47.002   7800.94908   1.59729   1.27657    44.937   4647.26   2909.46   3823.07   2991.62   5
   47.502   7800.65688   1.52889   0.38053    44.937   4515.76   2953.63   1689.40   4439.79   6
   48.003   7800.36248   0.68461   0.05043    44.938   2840.09   4148.56    273.74   5428.02   5
   48.502   7800.06687   0.04553   0.62756    44.938    274.09   6019.56   2459.14   3918.62   5
   49.003   7799.77287   0.31607   1.51255    44.938   1616.09   5113.21   4181.99   2764.87   4
   49.503   7799.47640   1.21079   1.65150    44.938   4114.69   3398.36   4422.74   2678.02   5
   50.003   7799.18233   1.70204   0.88100    44.938   4942.09   2903.63   3194.07   3625.62   6
