[CRDS Header]
FileType=Wavelength Monitor Calibration
Filename=Laser2Sim.wlm
Date=20091206
Time=164452

[Parameters]
laser_current=36000.00
etalon1_offset=6610.00
reference1_offset=6620.00
etalon2_offset=6630.00
reference2_offset=6640.00

[Data column names]
0=Laser temperature
1=Wavenumber
2=Wavelength ratio 1
3=Wavelength ratio 2
4=Etalon temperature
5=Etalon 1 (offset removed)
6=Reference 1 (offset removed)
7=Etalon 2 (offset removed)
8=Reference 2 (offset removed)
9=Points averaged

[Data]
    8.000   6062.60000   0.39175   1.16272    37.895   7486.00  19109.00  14298.00  12297.00   5
    8.505   6062.37679   0.89684   1.12143    37.895  12574.20  14020.80  14058.60  12536.40   5
    9.006   6062.15357   1.18943   0.71191    37.895  14448.00  12147.00  11059.50  15535.50   6
    9.509   6061.93036   1.06657   0.22281    37.895  13725.80  12869.20   4845.60  21749.40   5
   10.010   6061.70714   0.61596   0.00028    37.895  10137.00  16458.00      7.40  26587.60   5
   10.510   6061.48393   0.15453   0.19819    37.895   3559.40  23035.60   4398.60  22196.40   5
   11.010   6061.26071   0.00511   0.67709    37.895    135.20  26459.80  10737.00  15858.00   5
   11.511   6061.03750   0.27210   1.10234    37.895   5688.20  20906.80  13944.80  12650.20   5
   12.010   6060.81429   0.76812   1.17592    37.895  11553.40  15041.60  14372.60  12222.40   5
   12.508   6060.59107   1.14575   0.84908    37.895  14200.71  12394.29  12212.00  14383.00   7
   13.010   6060.36786   1.14324   0.34535    37.895  14186.20  12408.80   6826.60  19768.40   5
   13.510   6060.14464   0.75972   0.02178    37.895  11481.60  15113.40    566.80  26028.20   5
   14.010   6059.92143   0.26455   0.10265    37.895   5563.40  21031.60   2475.60  24119.40   5
   14.510   6059.69821   0.00402   0.53159    37.895    106.40  26488.60   9230.40  17364.60   5
   15.010   6059.47500   0.16035   1.00827    37.895   3675.00  22920.00  13352.20  13242.80   5
   15.508   6059.25179   0.62185   1.19944    37.895  10196.86  16398.14  14503.29  12091.71   7
   16.008   6059.02857   1.07017   0.97262    37.895  13748.17  12846.83  13112.83  13482.17   6
   16.510   6058.80536   1.18846   0.48361    37.895  14442.60  12152.40   8668.80  17926.20   5
   17.010   6058.58214   0.89425   0.07710    37.895  12555.00  14040.00   1903.40  24691.60   5
   17.510   6058.35893   0.39388   0.03666    37.895   7514.80  19080.20    940.40  25654.60   5
   18.010   6058.13571   0.03804   0.39016    37.895    974.40  25620.60   7463.80  19131.20   5
   18.510   6057.91250   0.07505   0.89058    37.895   1856.40  24738.60  12527.80  14067.20   5
   19.010   6057.68929   0.47940   1.18777    37.895   8617.80  17977.20  14438.80  12156.20   5
   19.510   6057.46607   0.96800   1.07382    37.895  13081.20  13513.80  13770.80  12824.20   5
   20.010   6057.24286   1.19924   0.62858    37.895  14502.20  12092.80  10264.60  16330.40   5
   20.511   6057.01964   1.01134   0.16337    37.895  13372.40  13222.60   3734.40  22860.60   5
   21.010   6056.79643   0.53560   0.00359    37.895   9275.80  17319.20     95.00  26500.00   5
   21.509   6056.57321   0.10560   0.26023    37.895   2540.00  24055.00   5491.33  21103.67   6
   22.011   6056.35000   0.02067   0.75570    37.895    538.60  26056.40  11447.00  15148.00   5
   22.510   6056.12679   0.34144   1.14148    37.895   6769.00  19826.00  14176.00  12419.00   5
   23.011   6055.90357   0.84346   1.14833    37.895  12168.20  14426.80  14215.60  12379.40   5
   23.511   6055.68036   1.17479   0.77191    37.895  14366.20  12228.80  11585.60  15009.40   5
   24.011   6055.45714   1.10401   0.27462    37.895  13954.80  12640.20   5729.60  20865.40   5
   24.508   6055.23393   0.68301   0.00585    37.895  10792.71  15802.29    154.57  26440.43   7
   25.010   6055.01071   0.20122   0.15185    37.895   4454.60  22140.40   3505.80  23089.20   5
   25.510   6054.78750   0.00026   0.61133    37.895      6.80  26588.20  10089.80  16505.20   5
   26.010   6054.56429   0.21861   1.06298    37.895   4770.60  21824.40  13703.40  12891.60   5
   26.510   6054.34107   0.70398   1.19087    37.895  10987.20  15607.80  14456.00  12139.00   5
   27.009   6054.11786   1.11581   0.90647    37.895  14025.33  12569.67  12645.00  13950.00   6
   27.510   6053.89464   1.16770   0.40613    37.895  14326.20  12268.80   7681.00  18914.00   5
   28.009   6053.67143   0.82339   0.04312    37.895  12009.33  14585.67   1099.17  25495.83   6
   28.509   6053.44821   0.32224   0.06822    37.895   6481.00  20114.00   1698.33  24896.67   6
   29.010   6053.22500   0.01512   0.46669    37.895    396.20  26198.80   8462.00  18133.00   5
   29.509   6053.00179   0.11766   0.95670    37.895   2799.50  23795.50  13003.17  13591.83   6
   30.009   6052.77857   0.55783   1.19857    37.895   9522.83  17072.17  14498.50  12096.50   6
   30.511   6052.55536   1.02778   1.02054    37.895  13479.60  13115.40  13432.60  13162.40   5
   31.011   6052.33214   1.19761   0.54785    37.895  14493.20  12101.80   9412.80  17182.20   5
   31.509   6052.10893   0.95063   0.11322    37.895  12960.83  13634.17   2704.50  23890.50   6
   32.009   6051.88571   0.45826   0.01715    37.895   8357.17  18237.83    448.33  26146.67   6
   32.510   6051.66250   0.06434   0.32988    37.895   1607.60  24987.40   6596.60  19998.40   5
   33.010   6051.43929   0.04650   0.83133    37.895   1181.60  25413.40  12072.60  14522.40   5
   33.511   6051.21607   0.41619   1.17120    37.895   7815.40  18779.60  14346.00  12249.00   5
   34.010   6050.99286   0.91390   1.11129    37.895  12699.20  13895.80  13998.40  12596.60   5
   34.509   6050.76964   1.19223   0.69566    37.895  14463.50  12131.50  10910.67  15684.33   6
   35.008   6050.54643   1.05829   0.21285    37.895  13674.00  12921.00   4667.00  21928.00   7
   35.510   6050.32321   0.60155   0.00006    37.895   9989.00  16606.00      1.60  26593.40   5
   36.009   6050.10000   0.14621   0.20771    37.895   3392.17  23202.83   4573.67  22021.33   6
   36.510   6049.87679   0.00709   0.69102    37.895    187.20  26407.80  10867.60  15727.40   5
   37.010   6049.65357   0.28355   1.10971    37.895   5874.80  20720.20  13989.00  12606.00   5
   37.509   6049.43036   0.78000   1.17235    37.895  11653.83  14941.17  14352.50  12242.50   6
   38.010   6049.20714   1.15247   0.83388    37.895  14239.40  12355.60  12092.80  14502.20   5
   38.508   6048.98393   1.13801   0.33458    37.895  14155.86  12439.14   6667.00  19928.00   7
   39.010   6048.76071   0.74579   0.01813    37.895  11361.00  15234.00    473.60  26121.40   5
   39.509   6048.53750   0.25389   0.11005    37.895   5384.67  21210.33   2636.33  23958.67   6
   40.008   6048.31429   0.00279   0.54321    37.895     73.86  26521.14   9361.14  17233.86   7
   40.510   6048.09107   0.17021   1.01851    37.895   3868.00  22727.00  13419.40  13175.60   5
   41.010   6047.86786   0.63874   1.19870    37.895  10365.80  16229.20  14499.20  12095.80   5
   41.511   6047.64464   1.08034   0.95953    37.895  13811.00  12784.00  13022.80  13572.20   5
   42.009   6047.42143   1.18562   0.47018    37.895  14426.83  12168.17   8505.00  18090.00   6
   42.511   6047.19821   0.88138   0.07011    37.895  12459.00  14136.00   1742.20  24852.80   5
   43.011   6046.97500   0.38003   0.04191    37.895   7323.40  19271.60   1069.60  25525.40   5
   43.511   6046.75179   0.03316   0.40377    37.895    853.60  25741.40   7649.20  18945.80   5
   44.010   6046.52857   0.08214   0.90292    37.895   2018.40  24576.60  12619.00  13976.00   5
   44.511   6046.30536   0.49386   1.19044    37.895   8791.80  17803.20  14453.60  12141.40   5
   45.009   6046.08214   0.97861   1.06540    37.895  13153.67  13441.33  13718.50  12876.50   6
   45.511   6045.85893   1.19972   0.61397    37.895  14504.80  12090.20  10116.80  16478.20   5
   46.010   6045.63571   1.00090   0.15370    37.895  13303.40  13291.60   3542.80  23052.20   5
   46.510   6045.41250   0.52151   0.00527    37.895   9115.40  17479.60    139.40  26455.60   5
   47.009   6045.18929   0.09804   0.27157    37.895   2374.33  24220.67   5679.50  20915.50   6
   47.509   6044.96607   0.02421   0.76845    37.895    628.50  25966.50  11556.17  15038.83   6
   48.009   6044.74286   0.35313   1.14687    37.895   6940.17  19654.83  14207.17  12387.83   6
   48.511   6044.51964   0.85669   1.14227    37.895  12271.00  14324.00  14180.60  12414.40   5
   49.009   6044.29643   1.17837   0.75930    37.895  14386.33  12208.67  11478.00  15117.00   6
   49.510   6044.07321   1.09651   0.26340    37.895  13909.60  12685.40   5544.40  21050.60   5
   50.010   6043.85000   0.66696   0.00380    37.895  10640.60  15954.40    100.60  26494.40   5
