[CRDS Header]
FileType=Wavelength Monitor Calibration
Filename=firstTest.wlm
Date=20091021
Time=204841

[Parameters]
laser_current=36000.00
etalon1_offset=100.00
reference1_offset=110.00
etalon2_offset=120.00
reference2_offset=130.00

[Data column names]
0=Laser temperature
1=Wavenumber
2=Wavelength ratio 1
3=Wavelength ratio 2
4=Etalon temperature
5=Etalon 1 (offset removed)
6=Reference 1 (offset removed)
7=Etalon 2 (offset removed)
8=Reference 2 (offset removed)
9=Points averaged

[Data]
    9.999   6323.42192   0.62670   0.00068     1.664  10246.00  16349.00     18.00  26577.00  27
   10.502   6323.19810   0.16020   0.19190     1.664   3672.27  22922.73   4281.82  22313.18  67
   11.005   6322.97428   0.00442   0.67217     1.664    117.11  26477.89  10690.47  15904.53  19
   11.506   6322.75012   0.26768   1.09958     1.664   5615.60  20979.40  13928.20  12666.80  20
   12.006   6322.52630   0.76401   1.17712     1.664  11518.50  15076.50  14379.30  12215.70  20
   12.503   6322.30248   1.14372   0.85351     1.664  14188.97  12406.03  12246.51  14348.49  67
   13.006   6322.07799   1.14504   0.34928     1.664  14196.62  12398.38   6884.38  19710.62  21
   13.507   6321.85350   0.76281   0.02254     1.664  11508.25  15086.75    586.25  26008.75  20
   14.008   6321.62935   0.26661   0.10126     1.664   5597.95  20997.05   2445.29  24149.71  21
   14.509   6321.40452   0.00420   0.53003     1.664    111.20  26483.80   9212.90  17382.10  20
   15.009   6321.18037   0.15994   1.00788     1.664   3666.95  22928.05  13349.67  13245.33  21
   15.511   6320.95521   0.62525   1.19940     1.664  10231.22  16363.78  14503.06  12091.94  18
   16.011   6320.73072   1.07189   0.97055     1.664  13758.85  12836.15  13098.70  13496.30  20
   16.511   6320.50590   1.18830   0.48262     1.664  14441.71  12153.29   8656.90  17938.10  21
   17.005   6320.28141   0.89918   0.08001     1.664  12591.51  14003.49   1970.06  24624.94  70
   17.511   6320.05459   0.39339   0.03679     1.664   7508.28  19086.72    943.78  25651.22  18
   18.004   6319.83110   0.04013   0.38454     1.664   1026.07  25568.93   7386.29  19208.71  70
   18.510   6319.60428   0.07487   0.89009     1.664   1852.38  24742.62  12524.14  14070.86  21
   19.004   6319.37979   0.47345   1.18655     1.664   8545.35  18049.65  14431.99  12163.01  72
   19.510   6319.15263   0.96763   1.07410     1.664  13078.71  13516.29  13772.57  12822.43  21
   20.004   6318.92781   1.19897   0.63456     1.664  14500.70  12094.30  10324.42  16270.58  71
   20.509   6318.70099   1.01215   0.16410     1.664  13377.77  13217.23   3748.86  22846.14  22
   21.004   6318.47616   0.54179   0.00298     1.664   9345.46  17249.54     79.10  26515.90  70
   21.510   6318.24901   0.10530   0.26066     1.664   2533.47  24061.53   5498.79  21096.21  19
   22.004   6318.02452   0.01900   0.74936     1.664    495.82  26099.18  11392.17  15202.83  71
   22.509   6317.79736   0.34022   1.14084     1.664   6751.09  19843.91  14172.32  12422.68  22
   23.009   6317.57087   0.84211   1.14892     1.664  12157.71  14437.29  14219.00  12376.00  21
   23.509   6317.34371   1.17444   0.77314     1.664  14364.27  12230.73  11596.09  14998.91  22
   24.004   6317.11722   1.10803   0.28067     1.664  13978.91  12616.09   5828.46  20766.54  69
   24.507   6316.88907   0.68433   0.00598     1.664  10805.29  15789.71    158.05  26436.95  21
   25.007   6316.66224   0.20356   0.14974     1.664   4497.90  22097.10   3463.67  23131.33  21
   25.507   6316.43542   0.00018   0.60862     1.664      4.67  26590.33  10062.11  16532.89  18
   26.006   6316.20893   0.21554   1.06056     1.664   4715.71  21879.29  13688.29  12906.71  21
   26.506   6315.98177   0.69972   1.19160     1.664  10948.30  15646.70  14460.05  12134.95  20
   27.006   6315.75395   1.11453   0.90861     1.664  14017.72  12577.28  12660.78  13934.22  18
   27.506   6315.52612   1.16926   0.41064     1.664  14335.05  12259.95   7741.80  18853.20  20
   28.006   6315.29797   0.82624   0.04431     1.664  12032.26  14562.74   1128.47  25466.53  19
   28.503   6315.06981   0.32761   0.06541     1.664   6562.68  20032.32   1632.66  24962.34  71
   29.004   6314.84165   0.01646   0.46097     1.664    430.65  26164.35   8391.25  18203.75  20
   29.505   6314.61416   0.11512   0.95323     1.664   2745.48  23849.52  12979.05  13615.95  21
   30.005   6314.38633   0.55298   1.19820     1.664   9469.76  17125.24  14496.48  12098.52  21
   30.505   6314.15818   1.02402   1.02445     1.664  13455.29  13139.71  13458.10  13136.90  21
   31.005   6313.92935   1.19821   0.55409     1.664  14496.52  12098.48   9482.05  17112.95  21
   31.505   6313.70019   0.95413   0.11572     1.664  12985.33  13609.67   2758.38  23836.62  21
   32.004   6313.47103   0.46271   0.01606     1.664   8412.96  18182.04    420.25  26174.75  24
   32.502   6313.24188   0.06802   0.32263     1.664   1693.87  24901.13   6487.32  20107.68  71
   33.004   6313.01272   0.04417   0.82554     1.664   1124.89  25470.11  12026.67  14568.33  18
   33.504   6312.78356   0.40968   1.16913     1.664   7729.00  18866.00  14334.30  12260.70  20
   34.002   6312.55507   0.90681   1.11562     1.664  12647.64  13947.36  14024.24  12570.76  72
   34.504   6312.32591   1.19158   0.70041     1.664  14459.94  12135.06  10954.67  15640.33  18
   35.004   6312.09608   1.06038   0.21546     1.664  13687.17  12907.83   4714.39  21880.61  18
   35.504   6311.86659   0.60778   0.00012     1.664  10053.50  16541.50      3.32  26591.68  22
   36.005   6311.63677   0.14888   0.20455     1.664   3446.44  23148.56   4516.22  22078.78  18
   36.504   6311.40661   0.00620   0.68493     1.664    163.79  26431.21  10810.92  15784.08  24
   37.004   6311.17611   0.27832   1.10642     1.664   5790.27  20804.73  13969.32  12625.68  22
   37.504   6310.94495   0.77579   1.17366     1.664  11618.57  14976.43  14359.86  12235.14  21
   38.004   6310.71446   1.15000   0.83961     1.664  14225.22  12369.78  12138.09  14456.91  23
   38.502   6310.48464   1.14041   0.33961     1.664  14169.83  12425.17   6742.14  19852.86  70
   39.004   6310.25381   0.75239   0.01978     1.664  11418.53  15176.47    515.74  26079.26  19
   39.504   6310.02332   0.25782   0.10722     1.664   5451.26  21143.74   2575.30  24019.70  23
   40.004   6309.79216   0.00311   0.53979     1.664     82.55  26512.45   9323.10  17271.90  20
