[CRDS Header]
FileType=Wavelength Monitor Calibration
Filename=firstTest.wlm
Date=20091009
Time=182442

[Parameters]
laser_current=36000.00
etalon1_offset=100.00
reference1_offset=110.00
etalon2_offset=120.00
reference2_offset=130.00

[Data column names]
0=Laser temperature
1=Wavenumber
2=Wavelength ratio 1
3=Wavelength ratio 2
4=Etalon temperature
5=Etalon 1 (offset removed)
6=Reference 1 (offset removed)
7=Etalon 2 (offset removed)
8=Reference 2 (offset removed)
9=Points averaged

[Data]
    9.991   6323.42359   1.19896   0.63506     1.664  13384.00  11163.00   9534.07  15012.93  14
   10.501   6323.19943   1.00876   0.16095     1.664  12327.00  12220.00   3403.13  21143.88   8
   11.003   6322.97728   0.53006   0.00418     1.664   8503.83  16043.17    102.17  24444.83   6
   11.503   6322.75913   0.10192   0.26563     1.664   2270.40  22276.60   5151.80  19395.20   5
   12.006   6322.52763   0.02296   0.76411     1.664    551.00  23996.00  10632.29  13914.71   7
   12.506   6322.31248   0.34944   1.14504     1.664   6356.40  18190.60  13103.40  11443.60   5
   13.009   6322.07899   0.85352   1.14378     1.664  11303.50  13243.50  13096.67  11450.33   6
   13.510   6321.86451   1.17824   0.75982     1.664  13277.80  11269.20  10598.40  13948.60   5
   14.010   6321.63068   1.09747   0.26485     1.664  12843.83  11703.17   5139.67  19407.33   6
   14.510   6321.42320   0.66850   0.00398     1.664   9834.80  14712.20     97.40  24449.60   5
   15.014   6321.17770   0.18872   0.16327     1.664   3896.71  20650.29   3445.00  21102.00   7
   15.512   6320.95922   0.00071   0.62648     1.664     17.40  24529.60   9454.60  15092.40   5
   16.013   6320.74807   0.23124   1.07313     1.664   4609.80  19937.20  12706.40  11840.60   5
   16.514   6320.50457   0.72079   1.18763     1.664  10281.83  14265.17  13326.17  11220.83   6
   17.014   6320.28942   1.12489   0.89051     1.664  12994.83  11552.17  11562.50  12984.50   6
   17.515   6320.05192   1.16170   0.38956     1.664  13191.57  11355.43   6881.29  17665.71   7
   18.016   6319.83477   0.80419   0.03566     1.664  10941.40  13605.60    845.20  23701.80   5
   18.516   6319.60294   0.30459   0.07781     1.664   5730.78  18816.22   1771.89  22775.11   9
   19.017   6319.37579   0.01108   0.48551     1.664    269.00  24278.00   8022.57  16524.43   7
   19.515   6319.15697   0.12935   0.97219     1.664   2811.40  21735.60  12100.40  12446.60   5
   20.014   6318.92281   0.57556   1.19947     1.664   8966.86  15580.14  13386.57  11160.43   7
   20.516   6318.70632   1.04077   1.00701     1.664  12518.67  12028.33  12316.33  12230.67   6
   21.016   6318.47383   1.19594   0.53053     1.664  13368.67  11178.33   8508.67  16038.33   6
   21.516   6318.24634   0.93436   0.10178     1.664  11857.00  12690.00   2267.56  22279.44   9
   22.014   6318.02852   0.44080   0.02160     1.664   7509.80  17037.20    519.00  24028.00   5
   22.514   6317.79369   0.05708   0.34471     1.664   1325.40  23221.60   6292.40  18254.60   5
   23.013   6317.57454   0.05290   0.84622     1.664   1233.33  23313.67  11251.17  13295.83   6
   23.513   6317.34171   0.43127   1.17577     1.664   7396.38  17150.63  13265.00  11282.00   8
   24.012   6317.11289   0.92619   1.10343     1.664  11803.13  12743.88  12877.00  11670.00   8
   24.509   6316.89640   1.19432   0.68221     1.664  13360.40  11186.60   9954.80  14592.20   5
   25.009   6316.66191   1.04892   0.20184     1.664  12566.50  11980.50   4122.33  20424.67   6
   25.508   6316.44309   0.59104   0.00020     1.664   9118.60  15428.40      5.00  24542.00   5
   26.008   6316.20860   0.13792   0.21748     1.664   2975.00  21572.00   4384.71  20162.29   7
   26.508   6315.97910   0.00884   0.70194     1.664    215.00  24332.00  10124.00  14423.00   8
   27.007   6315.75928   0.29214   1.11491     1.664   5549.67  18997.33  12940.33  11606.67   6
   27.508   6315.52679   0.79107   1.16868     1.664  10841.71  13705.29  13228.14  11318.86   7
   28.008   6315.29663   1.15627   0.82438     1.664  13163.00  11384.00  11092.00  13455.00   9
   28.508   6315.06781   1.13220   0.32288     1.664  13034.50  11512.50   5991.25  18555.75   8
   29.007   6314.84165   0.73630   0.01571     1.664  10409.43  14137.57    379.57  24167.43   7
   29.506   6314.62183   0.24613   0.11560     1.664   4848.33  19698.67   2543.50  22003.50   6
   30.005   6314.38633   0.00185   0.55352     1.664     45.40  24501.60   8746.00  15801.00   5
   30.506   6314.16518   0.17589   1.02433     1.664   3671.67  20875.33  12421.00  12126.00   6
   31.005   6313.93069   0.64622   1.19813     1.664   9635.80  14911.20  13379.80  11167.20   5
   31.505   6313.71020   1.08425   0.95423     1.664  12769.60  11777.40  11986.00  12561.00   5
   32.007   6313.47103   1.18326   0.45999     1.664  13303.71  11243.29   7733.86  16813.14   7
   32.506   6313.24121   0.87404   0.06617     1.664  11448.50  13098.50   1523.40  23023.60  10
   33.005   6313.02606   0.37416   0.04424     1.664   6683.67  17863.33   1039.83  23507.17   6
   33.504   6312.78589   0.03100   0.40990     1.664    738.00  23809.00   7136.40  17410.60   5
   34.005   6312.56474   0.08579   0.90916     1.664   1939.33  22607.67  11689.50  12857.50   6
   34.504   6312.32858   0.49963   1.19154     1.664   8178.20  16368.80  13346.20  11200.80   5
   35.006   6312.09742   0.98583   1.05938     1.664  12185.90  12361.10  12627.40  11919.60  10
   35.505   6311.86592   1.19990   0.60659     1.664  13388.75  11158.25   9268.00  15279.00   8
   36.006   6311.63610   0.99451   0.14807     1.664  12239.71  12307.29   3165.86  21381.14   7
   36.504   6311.41495   0.51520   0.00616     1.664   8346.40  16200.60    150.20  24396.80   5
   37.005   6311.17778   0.09339   0.27873     1.664   2096.50  22450.50   5350.50  19196.50   6
   37.506   6310.94429   0.02686   0.77708     1.664    642.11  23904.89  10733.89  13813.11   9
   38.005   6310.71546   0.36135   1.15052     1.664   6515.57  18031.43  13132.57  11414.43   7
   38.504   6310.49164   0.86225   1.13966     1.664  11365.60  13181.40  13074.60  11472.40   5
   39.007   6310.25314   1.18094   0.74947     1.664  13291.78  11255.22  10515.89  14031.11   9
   39.505   6310.03799   1.09249   0.25747     1.664  12816.00  11731.00   5026.00  19521.00   5
   40.005   6309.79616   0.65937   0.00296     1.664   9754.00  14793.00     72.40  24474.60   5
