[CRDS Header]
FileType=Wavelength Monitor Calibration
Filename=firstTest.wlm
Date=20091014
Time=204206

[Parameters]
laser_current=36000.00
etalon1_offset=100.00
reference1_offset=110.00
etalon2_offset=120.00
reference2_offset=130.00

[Data column names]
0=Laser temperature
1=Wavenumber
2=Wavelength ratio 1
3=Wavelength ratio 2
4=Etalon temperature
5=Etalon 1 (offset removed)
6=Reference 1 (offset removed)
7=Etalon 2 (offset removed)
8=Reference 2 (offset removed)
9=Points averaged

[Data]
   10.000   6323.42092   0.62656   0.00066     1.664  10244.53  16350.47     17.60  26577.40  15
   10.505   6323.20810   0.15829   0.19394     1.664   3634.40  22960.60   4320.00  22275.00   5
   11.008   6322.97294   0.00475   0.67487     1.664    125.86  26469.14  10716.14  15878.86   7
   11.507   6322.75379   0.26854   1.10012     1.664   5629.80  20965.20  13931.40  12663.60   5
   12.009   6322.53831   0.76712   1.17620     1.664  11545.00  15050.00  14374.17  12220.83   6
   12.511   6322.30181   1.14707   0.84613     1.664  14208.38  12386.63  12189.13  14405.88   8
   13.012   6322.08233   1.14251   0.34389     1.664  14182.00  12413.00   6805.33  19789.67   6
   13.510   6321.86918   0.75992   0.02181     1.664  11483.40  15111.60    567.60  26027.40   5
   14.014   6321.62568   0.26100   0.10505     1.664   5504.38  21090.63   2528.00  24067.00   8
   14.513   6321.40486   0.00375   0.53405     1.664     99.40  26495.60   9258.20  17336.80   5
   15.013   6321.19004   0.16278   1.01085     1.664   3722.80  22872.20  13369.20  13225.80   5
   15.517   6320.95088   0.63104   1.19908     1.664  10289.22  16305.78  14501.33  12093.67   9
   16.017   6320.73573   1.07553   0.96578     1.664  13781.40  12813.60  13066.00  13529.00   5
   16.513   6320.52625   1.18781   0.48039     1.664  14439.00  12156.00   8629.80  17965.20   5
   17.015   6320.27808   0.88997   0.07487     1.664  12523.17  14071.83   1852.17  24742.83   6
   17.514   6320.05592   0.39072   0.03783     1.664   7471.40  19123.60    969.40  25625.60   5
   18.014   6319.82843   0.03660   0.39404     1.664    939.00  25656.00   7517.00  19078.00   5
   18.516   6319.61495   0.07795   0.89558     1.664   1923.00  24672.00  12564.86  14030.14   7
   19.018   6319.37512   0.48745   1.18925     1.664   8715.29  17879.71  14447.00  12148.00   7
   19.513   6319.15663   0.97010   1.07217     1.664  13095.60  13499.40  13760.60  12834.40   5
   20.013   6318.95249   1.19935   0.62598     1.664  14502.80  12092.20  10238.40  16356.60   5
   20.515   6318.69798   1.00746   0.15984     1.664  13346.86  13248.14   3664.86  22930.14   7
   21.016   6318.47850   0.52999   0.00419     1.664   9212.40  17382.60    111.00  26484.00   5
   21.512   6318.26435   0.10403   0.26256     1.664   2505.80  24089.20   5530.20  21064.80   5
   22.014   6318.02185   0.02162   0.75927     1.664    562.71  26032.29  11477.71  15117.29   7
   22.514   6317.80003   0.34520   1.14320     1.664   6824.60  19770.40  14186.00  12409.00   5
   23.014   6317.57988   0.84671   1.14689     1.664  12193.67  14401.33  14207.33  12387.67   6
   23.513   6317.34105   1.17561   0.76910     1.664  14370.83  12224.17  11561.83  15033.17   6
   24.011   6317.11756   1.10370   0.27429     1.664  13953.00  12642.00   5724.40  20870.60   5
   24.513   6316.89507   0.67842   0.00516     1.664  10749.67  15845.33    136.50  26458.50   6
   25.009   6316.66458   0.20208   0.15103     1.664   4470.80  22124.20   3489.40  23105.60   5
   25.509   6316.44109   0.00023   0.60966     1.664      6.00  26589.00  10072.80  16522.20   5
   26.010   6316.20893   0.21863   1.06294     1.664   4771.30  21823.70  13703.20  12891.80  10
   26.507   6315.99111   0.70078   1.19141     1.664  10958.00  15637.00  14459.00  12136.00   5
   27.009   6315.75595   1.11592   0.90634     1.664  14026.00  12569.00  12644.13  13950.88   8
   27.507   6315.53613   1.16879   0.40952     1.664  14332.40  12262.60   7726.80  18868.20   5
   28.008   6315.29630   0.82394   0.04337     1.664  12013.86  14581.14   1105.43  25489.57   7
   28.506   6315.07915   0.32478   0.06687     1.664   6519.80  20075.20   1667.00  24928.00   5
   29.008   6314.84298   0.01565   0.46444     1.664    409.88  26185.13   8434.38  18160.63   8
   29.507   6314.62917   0.11633   0.95487     1.664   2771.33  23823.67  12990.50  13604.50   6
   30.006   6314.38834   0.55440   1.19830     1.664   9485.40  17109.60  14497.00  12098.00   5
   30.507   6314.16351   1.02534   1.02308     1.664  13463.83  13131.17  13449.17  13145.83   6
   31.007   6313.93169   1.19804   0.55230     1.664  14495.57  12099.43   9462.29  17132.71   7
   31.506   6313.71087   0.95336   0.11514     1.664  12980.00  13615.00   2746.00  23849.00   6
   32.006   6313.47437   0.46135   0.01638     1.664   8396.00  18199.00    428.50  26166.50   6
   32.505   6313.24921   0.06682   0.32487     1.664   1665.80  24929.20   6521.20  20073.80   5
   33.007   6313.01372   0.04522   0.82807     1.664   1150.50  25444.50  12046.80  14548.20  10
   33.504   6312.79423   0.40993   1.16911     1.664   7732.20  18862.80  14334.20  12260.80   5
   34.005   6312.55607   0.90919   1.11414     1.664  12665.00  13930.00  14015.40  12579.60   5
   34.505   6312.33225   1.19178   0.69864     1.664  14461.00  12134.00  10938.33  15656.67   6
   35.006   6312.11243   1.05974   0.21452     1.664  13683.17  12911.83   4697.33  21897.67   6
   35.506   6311.86759   0.60620   0.00007     1.664  10037.17  16557.83      1.83  26593.17   6
   36.005   6311.64377   0.14880   0.20469     1.664   3444.60  23150.40   4518.60  22076.40   5
   36.507   6311.41028   0.00653   0.68735     1.664    172.50  26422.50  10833.50  15761.50   8
   37.005   6311.18812   0.27848   1.10650     1.664   5792.80  20802.20  13969.80  12625.20   5
   37.506   6310.94796   0.77764   1.17306     1.664  11634.13  14960.88  14356.50  12238.50   8
   38.005   6310.71880   1.15031   0.83889     1.664  14227.00  12368.00  12132.40  14462.60   5
   38.507   6310.48530   1.13836   0.33526     1.664  14157.90  12437.10   6677.40  19917.60  10
   39.005   6310.26148   0.75117   0.01940     1.664  11408.00  15187.00    506.00  26089.00   5
   39.507   6310.02465   0.25568   0.10875     1.664   5415.13  21179.88   2608.50  23986.50   8
   40.005   6309.80183   0.00299   0.54085     1.664     79.40  26515.60   9335.00  17260.00   5
