[CRDS Header]
FileType=Wavelength Monitor Calibration
Filename=Laser1Sim.wlm
Date=20091206
Time=163908

[Parameters]
laser_current=36000.00
etalon1_offset=6610.00
reference1_offset=6620.00
etalon2_offset=6630.00
reference2_offset=6640.00

[Data column names]
0=Laser temperature
1=Wavenumber
2=Wavelength ratio 1
3=Wavelength ratio 2
4=Etalon temperature
5=Etalon 1 (offset removed)
6=Reference 1 (offset removed)
7=Etalon 2 (offset removed)
8=Reference 2 (offset removed)
9=Points averaged

[Data]
    8.000   6245.65000   0.39175   1.16272    37.895   7486.00  19109.00  14298.00  12297.00   5
    8.506   6245.41726   0.89769   1.12093    37.895  12580.50  14014.50  14055.67  12539.33   6
    9.011   6245.18452   1.19019   0.70760    37.895  14452.20  12142.80  11020.40  15574.60   5
    9.512   6244.95179   1.06480   0.22050    37.895  13714.80  12880.20   4804.60  21790.40   5
   10.013   6244.71905   0.61258   0.00026    37.895  10102.60  16492.40      6.80  26588.20   5
   10.514   6244.48631   0.15219   0.20083    37.895   3512.60  23082.40   4447.60  22147.40   5
   11.011   6244.25357   0.00515   0.67745    37.895    136.29  26458.71  10740.29  15854.71   7
   11.513   6244.02083   0.27450   1.10391    37.895   5727.80  20867.20  13954.20  12640.80   5
   12.014   6243.78810   0.77148   1.17493    37.895  11582.00  15013.00  14367.00  12228.00   5
   12.514   6243.55536   1.14823   0.84358    37.895  14215.00  12380.00  12169.20  14425.80   5
   13.012   6243.32262   1.14214   0.34327    37.895  14179.83  12415.17   6796.00  19799.00   6
   13.514   6243.08988   0.75553   0.02059    37.895  11445.60  15149.40    536.60  26058.40   5
   14.014   6242.85714   0.26112   0.10499    37.895   5506.40  21088.60   2526.80  24068.20   5
   14.514   6242.62440   0.00359   0.53530    37.895     95.20  26499.80   9272.40  17322.60   5
   15.012   6242.39167   0.16207   1.01006    37.895   3708.83  22886.17  13364.00  13231.00   6
   15.514   6242.15893   0.62853   1.19928    37.895  10264.20  16330.80  14502.40  12092.60   5
   16.014   6241.92619   1.07392   0.96794    37.895  13771.40  12823.60  13080.80  13514.20   5
   16.514   6241.69345   1.18767   0.47957    37.895  14438.20  12156.80   8620.00  17975.00   5
   17.014   6241.46071   0.89085   0.07526    37.895  12529.80  14065.20   1861.20  24733.80   5
   17.511   6241.22798   0.39309   0.03695    37.895   7504.00  19091.00    947.57  25647.43   7
   18.014   6240.99524   0.03675   0.39364    37.895    942.60  25652.40   7511.60  19083.40   5
   18.514   6240.76250   0.07690   0.89376    37.895   1899.00  24696.00  12551.40  14043.60   5
   19.014   6240.52976   0.48282   1.18849    37.895   8659.40  17935.60  14442.80  12152.20   5
   19.514   6240.29702   0.97080   1.07169    37.895  13100.40  13494.60  13757.60  12837.40   5
   20.014   6240.06429   1.19939   0.62497    37.895  14503.00  12092.00  10228.40  16366.60   5
   20.514   6239.83155   1.00881   0.16090    37.895  13355.80  13239.20   3685.80  22909.20   5
   21.014   6239.59881   0.53232   0.00396    37.895   9238.80  17356.20    104.80  26490.20   5
   21.513   6239.36607   0.10332   0.26358    37.895   2490.40  24104.60   5547.40  21047.60   5
   22.014   6239.13333   0.02154   0.75911    37.895    560.80  26034.20  11476.40  15118.60   5
   22.513   6238.90060   0.34428   1.14279    37.895   6811.00  19784.00  14183.60  12411.40   5
   23.012   6238.66786   0.84486   1.14771    37.895  12179.17  14415.83  14212.00  12383.00   6
   23.511   6238.43512   1.17490   0.77150    37.895  14366.86  12228.14  11582.14  15012.86   7
   24.014   6238.20238   1.10238   0.27216    37.895  13945.00  12650.00   5689.40  20905.60   5
   24.512   6237.96964   0.67904   0.00529    37.895  10755.33  15839.67    140.00  26455.00   6
   25.014   6237.73690   0.19807   0.15459    37.895   4396.60  22198.40   3560.60  23034.40   5
   25.513   6237.50417   0.00029   0.61380    37.895      7.67  26587.33  10115.00  16480.00   6
   26.014   6237.27143   0.22147   1.06544    37.895   4821.80  21773.20  13718.80  12876.20   5
   26.514   6237.03869   0.70787   1.19026    37.895  11022.80  15572.20  14452.60  12142.40   5
   27.014   6236.80595   1.11869   0.90158    37.895  14042.40  12552.60  12609.20  13985.80   5
   27.512   6236.57321   1.16710   0.40445    37.895  14322.83  12272.17   7658.50  18936.50   6
   28.011   6236.34048   0.82160   0.04246    37.895  11995.00  14600.00   1083.14  25511.86   7
   28.512   6236.10774   0.31950   0.06968    37.895   6439.33  20155.67   1732.17  24862.83   6
   29.012   6235.87500   0.01473   0.46851    37.895    386.00  26209.00   8484.50  18110.50   6
   29.514   6235.64226   0.12054   0.96063    37.895   2860.80  23734.20  13030.40  13564.60   5
   30.014   6235.40952   0.56222   1.19884    37.895   9571.00  17024.00  14500.00  12095.00   5
   30.512   6235.17679   1.02905   1.01927    37.895  13487.83  13107.17  13424.33  13170.67   6
   31.014   6234.94405   1.19732   0.54495    37.895  14491.60  12103.40   9380.60  17214.40   5
   31.511   6234.71131   0.94884   0.11188    37.895  12948.33  13646.67   2675.83  23919.17   6
   32.013   6234.47857   0.45379   0.01823    37.895   8301.20  18293.80    476.00  26119.00   5
   32.512   6234.24583   0.06347   0.33159    37.895   1587.17  25007.83   6622.33  19972.67   6
   33.014   6234.01310   0.04789   0.83450    37.895   1215.40  25379.60  12097.80  14497.20   5
   33.504   6233.78036   0.40899   1.16900    37.895   7719.80  18875.20  14333.60  12261.40   5
   34.013   6233.54762   0.91602   1.11001    37.895  12714.60  13880.40  13990.80  12604.20   5
   34.512   6233.31488   1.19274   0.69243    37.895  14466.33  12128.67  10880.67  15714.33   6
   35.014   6233.08214   1.05434   0.20814    37.895  13649.20  12945.80   4581.60  22013.40   5
   35.512   6232.84940   0.59924   0.00007    37.895   9965.00  16630.00      1.83  26593.17   6
   36.013   6232.61667   0.14321   0.21122    37.895   3331.40  23263.60   4637.60  21957.40   5
   36.512   6232.38393   0.00737   0.69315    37.895    194.67  26400.33  10887.33  15707.67   6
   37.012   6232.15119   0.28527   1.11075    37.895   5902.50  20692.50  13995.17  12599.83   6
   37.512   6231.91845   0.78334   1.17123    37.895  11681.83  14913.17  14346.17  12248.83   6
   38.014   6231.68571   1.15376   0.83064    37.895  14246.80  12348.20  12067.20  14527.80   5
   38.512   6231.45298   1.13606   0.33072    37.895  14144.50  12450.50   6609.17  19985.83   6
   39.012   6231.22024   0.74403   0.01761    37.895  11345.67  15249.33    460.17  26134.83   6
   39.514   6230.98750   0.24974   0.11297    37.895   5314.40  21280.60   2699.20  23895.80   5
   40.011   6230.75476   0.00250   0.54643    37.895     66.43  26528.57   9397.00  17198.00   7
   40.514   6230.52202   0.17296   1.02133    37.895   3921.40  22673.60  13437.80  13157.20   5
   41.014   6230.28929   0.64231   1.19844    37.895  10401.20  16193.80  14497.80  12097.20   5
   41.512   6230.05655   1.08107   0.95848    37.895  13815.50  12779.50  13015.50  13579.50   6
   42.014   6229.82381   1.18472   0.46594    37.895  14421.80  12173.20   8452.80  18142.20   5
   42.514   6229.59107   0.87848   0.06858    37.895  12437.20  14157.80   1706.60  24888.40   5
   43.004   6229.35833   0.38695   0.03917    37.895   7419.80  19175.20   1002.40  25592.60   5
   43.511   6229.12560   0.03291   0.40445    37.895    847.33  25747.67   7658.50  18936.50   6
   44.014   6228.89286   0.08390   0.90597    37.895   2058.40  24536.60  12641.40  13953.60   5
   44.511   6228.66012   0.49394   1.19043    37.895   8792.71  17802.29  14453.57  12141.43   7
   45.014   6228.42738   0.98202   1.06262    37.895  13176.80  13418.20  13701.20  12893.80   5
   45.514   6228.19464   1.19979   0.61045    37.895  14505.20  12089.80  10080.80  16514.20   5
   46.014   6227.96190   0.99774   0.15090    37.895  13282.40  13312.60   3486.80  23108.20   5
   46.514   6227.72917   0.51781   0.00579    37.895   9072.80  17522.20    153.20  26441.80   5
   47.014   6227.49643   0.09514   0.27601    37.895   2310.20  24284.80   5752.40  20842.60   5
   47.514   6227.26369   0.02543   0.77280    37.895    659.60  25935.40  11593.20  15001.80   5
   48.012   6227.03095   0.35601   1.14814    37.895   6982.00  19613.00  14214.50  12380.50   6
   48.512   6226.79821   0.85773   1.14180    37.895  12279.00  14316.00  14177.83  12417.17   6
   49.013   6226.56548   1.17942   0.75555    37.895  14392.20  12202.80  11445.80  15149.20   5
   49.512   6226.33274   1.09553   0.26175    37.895  13903.67  12691.33   5516.83  21078.17   6
   50.014   6226.10000   0.66349   0.00340    37.895  10607.40  15987.60     90.20  26504.80   5
