[CRDS Header]
FileType=Wavelength Monitor Calibration
Filename=Laser_818028_CH4.wlm
Date=20091111
Time=151457

[Parameters]
laser_current=36000.00
etalon1_offset=6614.29
reference1_offset=6693.15
etalon2_offset=6639.07
reference2_offset=6656.11

[Data column names]
0=Laser temperature
1=Wavenumber
2=Wavelength ratio 1
3=Wavelength ratio 2
4=Etalon temperature
5=Etalon 1 (offset removed)
6=Reference 1 (offset removed)
7=Etalon 2 (offset removed)
8=Reference 2 (offset removed)
9=Points averaged

[Data]
    8.000   6062.60248   1.34300   1.27518    44.953  11507.64   8568.60  11813.87   9264.46  16
    8.504   6062.38266   1.48903   0.62408    44.953  12248.75   8225.99   7552.62  12102.08  22
    9.005   6062.16518   1.13271   0.15609    44.953  10463.15   9237.24   2394.16  15338.78  18
    9.503   6061.94936   0.54060   0.12157    44.953   6601.84  12212.13   1960.05  16122.72  68
   10.002   6061.73088   0.10875   0.52700    44.953   1738.34  15984.62   6802.53  12908.04  69
   10.504   6061.51139   0.08903   1.18102    44.954   1429.71  16058.75  11228.03   9507.04  20
   11.005   6061.29324   0.49324   1.63371    44.953   6208.81  12587.85  13333.41   8161.42  19
   11.503   6061.07676   1.08786   1.54794    44.954   9981.02   9174.94  12492.68   8070.53  66
   12.005   6060.85761   1.46670   0.97920    44.955  11859.21   8085.67   9772.18   9979.77  16
   12.505   6060.63812   1.35252   0.35026    44.955  11075.81   8189.00   4504.18  12859.54  20
   13.006   6060.41864   0.82532   0.08263    44.955   8569.26  10383.02   1291.32  15627.50  18
   13.506   6060.19982   0.27051   0.29148    44.954   3728.81  13784.59   4034.67  13841.89  19
   14.007   6059.98100   0.04132   0.88183    44.955    672.61  16276.80   9196.98  10429.44  20
   14.507   6059.76152   0.25868   1.50199    44.955   3612.36  13964.85  12307.08   8193.84  20
   15.008   6059.54203   0.82256   1.68957    44.956   8305.26  10096.95  12758.03   7551.04  20
   15.504   6059.32388   1.35729   1.29933    44.956  11054.37   8144.46  11152.46   8583.28  68
   16.008   6059.10373   1.48517   0.61887    44.956  11260.66   7582.09   6737.65  10887.27  21
   16.509   6058.88424   1.11098   0.14749    44.956   9873.75   8887.47   2113.08  14327.18  21
   17.009   6058.66476   0.50592   0.14109    44.956   5817.46  11499.05   2042.08  14473.99  20
   17.510   6058.44394   0.09187   0.59153    44.956   1388.06  15109.91   6898.05  11661.66  17
   18.010   6058.22445   0.11143   1.26053    44.956   1632.56  14651.25  10895.78   8643.89  20
   18.510   6058.00430   0.56314   1.68032    44.956   6280.21  11152.40  12582.58   7488.19  20
   19.010   6057.78382   1.18585   1.52684    44.956   9845.32   8302.41  11791.93   7723.12  18
   19.511   6057.56266   1.53712   0.90651    44.956  11158.33   7259.23   8650.93   9543.27  16
   20.009   6057.34118   1.35447   0.29201    44.956  10463.99   7725.52   3716.03  12726.08  21
   20.509   6057.12002   0.77584   0.08356    44.956   7488.76   9652.60   1222.83  14634.44  20
   21.010   6056.89954   0.22285   0.35473    44.956   2910.00  13058.56   4560.17  12855.54  17
   21.509   6056.67972   0.04790   0.97238    44.956    694.96  14509.05   9238.88   9501.39  20
   22.008   6056.45790   0.34837   1.54452    44.956   4174.89  11984.44  11888.25   7697.08  22
   22.504   6056.23841   0.97078   1.63332    44.955   8404.60   8657.69  11966.24   7326.35  68
   23.007   6056.01626   1.49940   1.16502    44.955  10610.09   7076.23   9952.60   8542.89  21
   23.508   6055.79544   1.54032   0.49775    44.956  10602.71   6883.45   5554.43  11159.29  20
   24.008   6055.57329   1.06322   0.10587    44.955   8724.77   8206.03   1502.82  14195.60  17
   24.507   6055.35047   0.42034   0.19068    44.955   4600.61  10945.15   2629.98  13792.79  20
   25.006   6055.12764   0.06067   0.69940    44.955    830.76  13694.00   7444.98  10644.89  20
   25.503   6054.90682   0.18616   1.33356    44.956   2320.42  12465.05  10779.18   8083.04  70
   26.005   6054.68367   0.74649   1.63254    44.956   6888.86   9228.33  11885.93   7280.63  19
   26.505   6054.46052   1.38511   1.35168    44.956   9717.75   7015.85  10567.93   7818.35  22
   27.005   6054.23703   1.63036   0.70455    44.956  10521.93   6453.74   7070.88  10036.00  18
   27.505   6054.01454   1.29941   0.18566    44.956   9273.09   7136.38   2434.93  13115.37  21
   28.005   6053.79272   0.64548   0.10459    44.956   6010.86   9312.22   1487.56  14222.74  19
   28.505   6053.57023   0.13782   0.47573    44.956   1693.53  12287.91   5508.99  11580.13  17
   29.002   6053.34775   0.08856   1.11289    44.956   1112.41  12560.44   9478.66   8517.17  73
   29.504   6053.12259   0.53498   1.57272    44.956   5215.26   9748.50  11326.53   7201.89  20
   30.004   6052.89977   1.21037   1.48679    44.956   8549.71   7063.71  10644.03   7159.08  21
   30.504   6052.67695   1.62800   0.92270    44.956  10036.07   6164.67   8149.93   8832.67  22
   31.005   6052.45179   1.47248   0.31154    44.956   9254.55   6285.01   3567.99  11452.68  19
   31.504   6052.22630   0.85870   0.07832    44.956   6917.00   8055.21   1076.29  13742.83  17
   32.002   6052.00348   0.25185   0.32072    44.956   2676.29  10626.44   3759.55  11722.16  70
   32.503   6051.77933   0.04876   0.92009    44.956    599.16  12288.80   8083.18   8785.24  20
   33.002   6051.55651   0.35447   1.48756    44.956   3528.14   9953.32  10193.54   6852.51  71
   33.503   6051.33035   1.00934   1.58383    44.956   7314.65   7246.97  10367.40   6545.78  17
   34.004   6051.10486   1.54752   1.11833    44.956   9075.34   5864.44   8415.84   7525.39  22
   34.502   6050.88171   1.55995   0.46474    44.956   8981.02   5757.25   4555.14   9801.58  68
   35.003   6050.65722   1.04600   0.09753    44.956   7287.71   6967.19   1200.84  12312.46  21
   35.502   6050.43406   0.39380   0.20691    44.956   3625.01   9205.18   2368.17  11445.18  67
   36.003   6050.20691   0.05310   0.74703    44.956    614.04  11563.62   6517.12   8724.04  21
   36.502   6049.98108   0.22195   1.39491    44.956   2226.53  10031.62   8973.82   6433.27  69
   37.003   6049.75493   0.80874   1.65158    44.956   6033.86   7460.80   9781.33   5922.39  20
   37.504   6049.53011   1.41145   1.31032    44.957   7985.11   5657.40   8286.33   6323.89  20
   38.004   6049.30362   1.57422   0.63514    44.957   8511.60   5406.85   5257.38   8277.56  18
   38.504   6049.07612   1.16948   0.14700    44.956   7119.18   6087.48   1542.30  10491.63  19
   39.004   6048.84997   0.51467   0.14311    44.956   4220.34   8200.13   1548.25  10818.89  22
   39.505   6048.62581   0.08680   0.60531    44.956    912.48  10512.24   5045.66   8335.67  18
   40.004   6048.40099   0.13041   1.28328    44.957   1328.23  10185.19   7935.41   6183.70  21
   40.502   6048.17517   0.62763   1.67892    44.956   4773.39   7605.42   8962.10   5338.01  70
   41.003   6047.94634   1.26099   1.46060    44.956   7120.86   5647.06   8094.78   5542.10  19
   41.504   6047.72019   1.54129   0.80433    44.956   7892.71   5120.85   5639.78   7011.74  19
   42.005   6047.49470   1.26380   0.22568    44.956   6985.13   5527.06   2049.83   9082.95  19
   42.505   6047.26687   0.63875   0.10101    44.956   4674.41   7318.03   1024.17  10139.78  17
   43.003   6047.03938   0.13772   0.48049    44.956   1325.46   9624.70   3899.65   8115.96  70
   43.504   6046.81056   0.07980   1.16559    44.956    809.71  10146.64   7018.14   6021.10  19
   44.005   6046.58473   0.48897   1.65773    44.957   3758.10   7685.74   8178.32   4933.45  18
   44.505   6046.35858   1.11322   1.56574    44.957   6352.77   5706.68   7866.76   5024.31  17
   45.003   6046.13242   1.48853   0.95546    44.957   7243.43   4866.19   5793.77   6063.85  69
   45.503   6045.90260   1.32074   0.30792    44.956   6774.98   5129.72   2489.62   8085.30  22
   46.004   6045.67477   0.74451   0.08436    44.957   4826.76   6483.17    789.88   9363.74  19
   46.502   6045.45028   0.20332   0.36756    44.957   1775.58   8733.04   2955.03   8039.53  69
   47.003   6045.22279   0.04942   1.01570    44.957    480.18   9717.33   5999.50   5906.80  21
   47.504   6044.99263   0.37653   1.58994    44.957   2905.26   7715.85   7493.93   4713.34  20
   48.004   6044.76281   0.99569   1.61177    44.957   5550.81   5574.85   7410.30   4597.63  19
   48.502   6044.53698   1.44180   1.06917    44.957   6627.92   4596.97   5785.56   5411.26  70
   49.002   6044.31083   1.38015   0.39945    44.956   6420.17   4651.78   2866.01   7174.83  67
   49.503   6044.08067   0.85163   0.08426    44.957   4862.99   5710.19    734.50   8717.18  21
   50.004   6043.84918   0.26570   0.28937    44.956   2064.10   7768.58   2276.99   7868.89  18
