[CRDS Header]
FileType=Wavelength Monitor Calibration
Filename=C:\Picarro\G2000\InstrConfig\Integration\Laser_11038012_iH2O.wlm
Date=20130423
Time=183501

[Parameters]
laser_current=36000.00
etalon1_offset=6560.67
reference1_offset=6557.49
etalon2_offset=6550.64
reference2_offset=6581.57

[Data column names]
0=Laser temperature
1=Wavenumber
2=Wavelength ratio 1
3=Wavelength ratio 2
4=Etalon temperature
5=Etalon 1 (offset removed)
6=Reference 1 (offset removed)
7=Etalon 2 (offset removed)
8=Reference 2 (offset removed)
9=Points averaged

[Data]
    5.500   7194.47739   1.23149   0.11545    45.082  12094.33   9820.91   2243.76  19434.43   5
    6.005   7194.20467   0.37373   0.17808    45.082   5430.47  14530.51   3361.93  18878.86   7
    6.507   7193.93208   0.02229   0.93264    45.082    401.53  18010.31  12115.96  12991.03   5
    7.008   7193.66072   0.49855   1.65992    45.082   6829.50  13698.68  16630.02  10018.60   6
    7.509   7193.38973   1.35676   1.60722    45.082  12906.73   9512.91  16375.96  10189.03   5
    8.009   7193.11908   1.74288   0.83200    45.083  14552.50   8349.68  11303.86  13586.43   6
    8.510   7192.84773   1.26593   0.13064    45.083  12453.13   9837.11   2550.76  19524.63   5
    9.016   7192.57540   0.40214   0.16063    45.083   5754.53  14309.71   3065.96  19087.43   5
    9.530   7192.29584   0.02149   0.91991    45.083    389.04  18102.51  12077.50  13129.15   7
   10.050   7192.01792   0.52553   1.67344    45.083   7045.61  13407.66  16572.07   9903.01   7
   10.560   7191.72775   1.40933   1.56934    45.083  13071.00   9274.85  16086.52  10250.60   6
   11.053   7191.46103   1.73633   0.76954    45.083  14382.53   8283.31  10639.56  13828.23   5
   11.551   7191.19171   1.21067   0.10695    45.083  11940.90   9863.94   2081.50  19468.58   7
   12.040   7190.92566   0.37768   0.17564    45.084   5412.50  14333.85   3283.69  18699.27   6
   12.532   7190.65818   0.02064   0.90627    45.084    363.93  17628.11  11640.16  12844.43   5
   13.025   7190.38963   0.46904   1.64307    45.084   6372.33  13586.35  16171.19   9842.10   6
   13.522   7190.11891   1.32711   1.62563    45.084  12347.83   9304.35  15944.02   9807.93   6
   14.020   7189.84752   1.74308   0.85877    45.084  14105.33   8092.18  11186.86  13026.60   6
   14.516   7189.57523   1.28769   0.14265    45.084  12027.93   9340.71   2648.16  18564.63   5
   15.017   7189.30257   0.42334   0.14703    45.084   5735.33  13547.91   2710.16  18433.23   5
   15.516   7189.02929   0.01938   0.87133    45.084    335.16  17289.85  11140.36  12785.43   6
   16.013   7188.75723   0.45177   1.63294    45.084   6009.13  13301.31  15654.76   9586.83   5
   16.512   7188.48271   1.31748   1.63063    45.084  12024.53   9126.91  15616.56   9577.03   5
   17.012   7188.20935   1.74266   0.86771    45.084  13635.13   7824.31  10889.36  12549.63   5
   17.511   7187.93733   1.29304   0.14496    45.084  11764.73   9098.51   2624.56  18104.83   5
   18.011   7187.66414   0.42891   0.14465    45.084   5632.66  13132.51   2598.52  17964.27   6
   18.510   7187.38978   0.01938   0.86971    45.084    323.93  16717.51  10766.16  12379.03   5
   19.010   7187.11559   0.45372   1.63336    45.084   5839.16  12869.51  15170.86   9288.10   6
   19.509   7186.84097   1.32320   1.62693    45.084  11573.19   8746.37  14986.78   9211.72   7
   20.007   7186.56658   1.74258   0.85527    45.084  13224.50   7589.01  10475.19  12247.93   6
   20.507   7186.29156   1.27640   0.13626    45.084  11195.93   8771.51   2378.76  17457.43   5
   21.006   7186.01750   0.41007   0.15520    45.084   5255.73  12816.91   2679.16  17262.83   5
   21.505   7185.74111   0.02021   0.89524    45.084    324.53  16061.71  10543.96  11777.83   5
   22.005   7185.46722   0.47728   1.64479    45.084   5816.53  12186.91  14592.96   8872.23   5
   22.503   7185.19467   1.34340   1.61459    45.084  11306.00   8416.01  14482.19   8969.60   6
   23.004   7184.91911   1.74207   0.83165    45.084  12718.33   7300.71   9900.96  11905.23   5
   23.505   7184.64282   1.25132   0.12434    45.084  10785.53   8619.31   2129.96  17129.63   5
   24.003   7184.36739   0.38393   0.17091    45.084   4819.13  12552.11   2823.36  16519.43   5
   24.504   7184.09027   0.02269   0.93333    45.084    354.93  15644.91  10564.16  11318.83   5
   25.004   7183.81384   0.51825   1.66742    45.084   6041.33  11657.35  14358.36   8611.10   6
   25.504   7183.53669   1.38938   1.58304    45.084  11204.00   8064.01  13973.36   8826.93   6
   26.004   7183.26079   1.73467   0.77444    45.084  12411.73   7155.11   9244.96  11937.63   5
   26.503   7182.98480   1.18494   0.10141    45.084   9819.73   8287.11   1655.96  16329.63   5
   27.004   7182.70968   0.33729   0.20177    45.084   4274.53  12673.11   3219.76  15957.63   5
   27.503   7182.43376   0.02910   0.98667    45.083    443.61  15242.66  10683.93  10828.29   7
   28.003   7182.15650   0.56569   1.68229    45.083   6306.93  11149.11  14095.96   8379.03   5
   28.503   7181.87904   1.43358   1.54613    45.083  11250.33   7847.71  13657.36   8833.23   5
   29.003   7181.60145   1.72281   0.71265    45.083  12225.93   7096.51   8645.96  12132.23   5
   29.502   7181.32449   1.12134   0.07914    45.083   9528.13   8497.11   1311.76  16575.63   5
   30.002   7181.04810   0.27603   0.23954    45.083   3326.93  12052.91   3417.16  14265.63   5
   30.502   7180.77101   0.04407   1.06146    45.083    661.53  15009.51  11082.76  10441.03   5
   31.003   7180.49241   0.64700   1.71452    45.083   6921.76  10698.37  14221.50   8294.72   7
   31.502   7180.21415   1.49620   1.48869    45.083  11438.93   7645.31  13347.96   8966.23   5
   32.003   7179.93756   1.70606   0.63490    45.083  12141.50   7116.68   7969.02  12551.77   6
   32.502   7179.66110   1.05674   0.05994    45.083   9405.53   8900.51   1026.76  17129.63   5
   33.002   7179.38258   0.22758   0.30057    45.083   3023.00  13283.35   4468.02  14865.27   6
   33.501   7179.10385   0.06807   1.14733    45.083    991.73  14568.91  11459.56   9988.03   5
   34.001   7178.82549   0.73323   1.73758    45.083   7451.53  10162.71  14174.56   8157.63   5
   34.501   7178.54577   1.56000   1.41819    45.083  11381.93   7296.11  12710.96   8962.83   5
   35.001   7178.26711   1.67270   0.54444    45.083  11722.13   7007.91   6961.16  12786.03   5
   35.501   7177.98921   0.95459   0.04367    45.082   8643.73   9054.91    738.76  16917.23   5
   36.001   7177.71142   0.16525   0.37780    45.082   2202.33  13327.11   5207.16  13782.83   5
   36.502   7177.43303   0.10789   1.24535    45.082   1494.50  13852.18  11701.36   9396.10   6
   37.001   7177.15417   0.83424   1.74916    45.082   7805.53   9356.51  13703.36   7834.23   5
   37.501   7176.87584   1.61856   1.33325    45.082  11256.83   6954.85  11971.36   8979.10   6
   38.001   7176.59555   1.62463   0.45376    45.082  11175.33   6878.68   5873.86  12944.93   6
   38.501   7176.31579   0.84520   0.03856    45.082   7716.53   9129.91    630.76  16358.83   5
   39.001   7176.03756   0.10936   0.46954    45.082   1459.13  13342.31   5963.76  12701.43   5
   39.501   7175.75517   0.16618   1.35016    45.082   2119.83  12756.51  11671.36   8644.43   6
   40.001   7175.47664   0.95626   1.74645    45.082   8197.93   8572.91  13224.16   7572.03   5
   40.501   7175.19925   1.67483   1.22236    45.082  10898.33   6507.11  10890.96   8909.83   5
   41.001   7174.91972   1.55442   0.35622    45.082  10472.93   6737.51   4649.36  13051.83   5
   41.501   7174.63880   0.72474   0.04753    45.082   6658.53   9187.51    737.76  15521.23   5
   42.000   7174.36027   0.06443   0.57529    45.082    837.53  12999.51   6560.96  11404.63   5
   42.501   7174.08051   0.23807   1.44525    45.082   2760.73  11596.51  11464.96   7932.83   5
   43.001   7173.79972   1.07904   1.72573    45.082   8226.73   7624.11  12293.16   7123.43   5
   43.501   7173.51879   1.71668   1.09937    45.082  10446.33   6085.18   9731.52   8851.93   6
   44.001   7173.23789   1.46258   0.26176    45.082   9499.33   6494.91   3366.76  12862.03   5
   44.501   7172.95873   0.59299   0.07600    45.082   5434.33   9164.31   1086.16  14291.43   5
   45.002   7172.67874   0.03121   0.70727    45.082    388.66  12454.01   7099.02  10037.27   6
