[CRDS Header]
FileType=Wavelength Monitor Calibration
Filename=C:\Picarro\G2000\InstrConfig\Integration\Laser_11128262_iH2O.wlm
Date=20130423
Time=182807

[Parameters]
laser_current=36000.00
etalon1_offset=6557.89
reference1_offset=6554.17
etalon2_offset=6552.24
reference2_offset=6573.88

[Data column names]
0=Laser temperature
1=Wavenumber
2=Wavelength ratio 1
3=Wavelength ratio 2
4=Etalon temperature
5=Etalon 1 (offset removed)
6=Reference 1 (offset removed)
7=Etalon 2 (offset removed)
8=Reference 2 (offset removed)
9=Points averaged

[Data]
    8.000   7204.13590   0.64224   0.06386    45.081   8939.98  13919.95   1418.51  22213.62   8
    8.506   7203.86965   0.05189   0.60476    45.081    958.27  18466.99   9400.59  15544.29   6
    9.015   7203.60170   0.23646   1.45070    45.081   4096.11  17322.97  17021.19  11733.12   7
    9.530   7203.32954   1.04893   1.73494    45.081  12400.51  11822.43  18735.16  10798.72   5
   10.049   7203.05412   1.69606   1.14651    45.082  15523.61   9152.83  14769.93  12883.95   6
   10.505   7202.82019   1.58149   0.40022    45.082  14939.39   9446.40   7167.76  17909.83   7
   11.052   7202.52235   0.74589   0.04556    45.082   9832.11  13185.43   1017.96  22344.12   5
   11.534   7202.26618   0.10325   0.48538    45.082   1921.71  18621.63   8426.36  17367.52   5
   12.030   7202.01113   0.14008   1.31306    45.082   2538.71  18126.83  15969.56  12162.52   5
   12.522   7201.75339   0.84222   1.75192    45.083  10701.44  12707.33  18567.59  10598.45   6
   13.019   7201.48844   1.59478   1.37111    45.083  15064.31   9446.03  16269.56  11866.12   5
   13.519   7201.22542   1.67091   0.53393    45.083  15414.94   9225.49   8975.43  16810.45   6
   14.016   7200.96227   0.99425   0.04786    45.083  11649.31  11716.83   1054.96  22042.12   5
   14.515   7200.69686   0.21512   0.31875    45.083   3678.31  17099.63   5961.56  18703.32   5
   15.011   7200.43414   0.05884   1.12428    45.083   1116.51  18977.63  14590.36  12977.72   5
   15.511   7200.16896   0.65534   1.72237    45.083   8835.91  13483.43  17965.56  10430.72   5
   16.009   7199.90478   1.47202   1.51447    45.083  14438.11   9808.43  17051.16  11258.92   5
   16.513   7199.63913   1.72522   0.69915    45.083  15278.25   8855.83  10612.62  15179.55   7
   17.011   7199.37297   1.15168   0.08646    45.083  12311.71  10690.23   1806.56  20894.72   5
   17.511   7199.10702   0.33058   0.21017    45.084   5166.91  15630.23   4085.76  19440.72   5
   18.010   7198.84034   0.02644   0.97137    45.084    505.82  19131.11  13221.62  13611.41   7
   18.509   7198.57359   0.51830   1.67028    45.084   7300.11  14084.99  17307.93  10362.29   6
   19.008   7198.30840   1.36016   1.60458    45.084  13599.11   9998.23  17197.76  10717.92   5
   19.508   7198.04212   1.74377   0.84078    45.084  15062.94   8638.16  11762.09  13989.62   6
   20.007   7197.77500   1.28995   0.14204    45.084  13094.51  10151.23   2863.76  20161.52   5
   20.505   7197.50912   0.44616   0.13690    45.084   6447.11  14450.43   2738.16  20001.12   5
   21.005   7197.24260   0.01975   0.83107    45.084    369.51  18707.63  11685.96  14061.52   5
   21.505   7196.97542   0.39975   1.60014    45.084   5913.44  14793.16  16749.93  10467.79   6
   22.006   7196.70716   1.24673   1.66914    45.084  12641.77  10139.99  17062.93  10222.62   6
   22.503   7196.43914   1.73994   0.96674    45.084  14887.77   8556.49  12697.59  13134.62   6
   23.004   7196.17219   1.39156   0.20377    45.084  13293.27   9552.83   3864.93  18967.62   6
   23.503   7195.90304   0.54615   0.09265    45.084   7432.44  13608.99   1888.43  20383.29   6
   24.003   7195.63626   0.02986   0.72116    45.084    544.11  18221.16  10447.09  14486.62   6
   24.503   7195.36734   0.31683   1.53296    45.084   4871.82  15377.11  16292.47  10628.12   7
   25.001   7195.09795   1.14696   1.70702    45.084  11884.31  10361.63  16970.36   9941.52   5
   25.503   7194.82893   1.70736   1.05386    45.084  14231.91   8335.63  12879.56  12221.32   5
   26.003   7194.56128   1.46426   0.26328    45.084  13418.51   9164.03   4749.16  18038.72   5
   26.503   7194.29166   0.63364   0.06571    45.084   8235.31  12997.03   1358.16  20670.52   5
   27.002   7194.02374   0.04811   0.63363    45.084    856.31  17798.83   9453.16  14919.12   5
   27.502   7193.75375   0.25363   1.47014    45.084   4044.91  15948.43  15969.36  10862.52   5
   28.003   7193.48343   1.06873   1.73192    45.083  11341.11  10611.83  16978.76   9803.45   6
   28.503   7193.21455   1.70329   1.14291    45.083  14641.77   8596.16  13918.26  12177.95   6
   29.002   7192.94463   1.52129   0.31693    45.083  13646.31   8970.23   5535.36  17465.92   5
   29.502   7192.67491   0.70530   0.05102    45.083   8789.51  12462.23   1055.76  20692.52   5
   30.001   7192.40435   0.06834   0.56854    45.083   1195.11  17488.23   8721.36  15340.12   5
   30.502   7192.13453   0.20961   1.41696    45.083   3359.44  16027.49  15355.93  10837.29   6
   31.001   7191.86478   0.99953   1.74503    45.083  10866.31  10871.43  16980.36   9730.72   5
   31.501   7191.59396   1.67925   1.20932    45.083  14119.51   8408.23  13945.76  11531.92   5
   32.001   7191.32364   1.56266   0.36529    45.083  13743.31   8794.83   6177.16  16910.52   5
   32.501   7191.05205   0.76347   0.04325    45.083   8934.71  11702.83    867.36  20052.92   5
   33.001   7190.78023   0.08709   0.51968    45.083   1479.61  16988.83   8029.26  15450.62   6
   33.500   7190.51024   0.17917   1.37387    45.083   2814.11  15706.83  14541.16  10584.12   5
   34.000   7190.23939   0.94938   1.74817    45.082  10237.71  10783.63  16509.96   9444.12   5
   34.500   7189.96997   1.65913   1.25342    45.082  13512.31   8144.23  13690.96  10922.92   5
   35.000   7189.69748   1.58895   0.40193    45.082  13332.31   8390.63   6416.96  15965.52   5
   35.501   7189.42726   0.80632   0.03984    45.082   8911.77  11052.49    771.26  19357.29   6
   36.000   7189.15444   0.10544   0.47987    45.082   1691.91  16046.63   7234.76  15076.72   5
   36.501   7188.88275   0.15647   1.33833    45.082   2418.94  15460.16  13929.26  10407.95   6
   37.000   7188.61100   0.91140   1.75092    45.082   9496.71  10420.03  15724.56   8980.72   5
   37.500   7188.33931   1.64265   1.28423    45.082  13038.11   7937.23  13453.16  10475.72   5
   38.000   7188.06602   1.60695   0.42780    45.082  12665.71   7881.83   6372.36  14895.72   5
   38.500   7187.79453   0.83798   0.03881    45.082   8848.51  10559.43    728.76  18775.72   5
   39.000   7187.52204   0.11757   0.45693    45.082   1770.91  15062.43   6600.16  14444.92   5
   39.499   7187.25052   0.14206   1.31360    45.082   2121.51  14934.03  13216.76  10061.52   5
   39.999   7186.97787   0.88707   1.75085    45.082   8847.91   9974.43  14905.56   8513.32   5
   40.500   7186.70658   1.63163   1.30502    45.082  12341.71   7564.03  12892.16   9878.92   5
   40.999   7186.43362   1.61897   0.44713    45.082  12038.71   7436.03   6248.36  13974.72   5
   41.500   7186.16223   0.86037   0.03867    45.082   8477.51   9853.43    684.76  17706.92   5
   42.000   7185.88868   0.12701   0.43960    45.082   1795.77  14138.83   6054.93  13773.95   6
   42.499   7185.61559   0.13254   1.29078    45.082   1836.71  13857.63  12043.56   9330.52   5
   43.000   7185.34400   0.87293   1.74953    45.082   8233.11   9431.66  14011.59   8008.79   6
   43.499   7185.07048   1.62607   1.31558    45.082  11508.71   7077.63  12098.96   9196.72   5
   43.999   7184.79652   1.62424   0.45464    45.082  11394.71   7015.43   5983.96  13162.12   5
   44.500   7184.52460   0.86917   0.03876    45.082   7959.96   9158.26    640.62  16526.55   7
   44.999   7184.25068   0.13267   0.42971    45.082   1771.51  13352.83   5641.96  13129.72   5
   45.499   7183.97902   0.12792   1.28698    45.082   1680.91  13140.83  11412.56   8867.72   5
   45.999   7183.70517   0.86294   1.75037    45.083   7783.51   9019.83  13353.76   7629.12   5
   46.501   7183.43031   1.62227   1.32104    45.083  10739.11   6619.83  11328.26   8575.29   6
   47.000   7183.15839   1.62361   0.45924    45.083  10745.27   6618.16   5689.26  12388.62   6
   47.499   7182.88654   0.86674   0.03857    45.083   7253.51   8368.83    582.56  15102.92   5
   47.999   7182.61218   0.13358   0.42693    45.083   1692.31  12669.03   5326.76  12477.12   5
   48.500   7182.33896   0.12827   1.28512    45.083   1605.91  12520.23  10855.76   8447.32   5
   49.002   7182.06437   0.86472   1.74652    45.083   7383.11   8538.23  12629.96   7231.52   5
   49.501   7181.79111   1.62089   1.32071    45.083  10373.94   6400.16  10949.26   8290.45   6
   50.000   7181.51792   1.62350   0.46197    45.083  10208.91   6288.23   5431.96  11758.32   5
