[CRDS Header]
FileType=Wavelength Monitor Calibration
Filename=/home/picarro/I2000/InstrConfig/Integration/Laser_17041226_HCL.wlm
Date=20180605
Time=175653

[Parameters]
laser_current=36000.00
etalon1_offset=6000.00
reference1_offset=6000.00
etalon2_offset=6000.00
reference2_offset=6000.00

[Data column names]
0=Laser temperature
1=Wavenumber
2=Wavelength ratio 1
3=Wavelength ratio 2
4=Etalon temperature
5=Etalon 1 (offset removed)
6=Reference 1 (offset removed)
7=Etalon 2 (offset removed)
8=Reference 2 (offset removed)
9=Points averaged

[Data]
    3.000   5741.19348   0.24818   0.93197    45.000   8349.57  33643.00  24042.00  25797.00   7
    3.508   5740.96444   0.67020   0.97011    45.000  18933.80  28251.20  24639.40  25398.60   5
    4.011   5740.73540   0.96902   0.67320    45.000  24556.20  25341.20  18947.40  28145.60   5
    4.513   5740.50636   0.93573   0.25483    45.000  23918.60  25561.40   8480.60  33280.40   5
    5.014   5740.27732   0.59621   0.00935    45.000  17187.80  28828.60    348.40  37248.40   5
    5.515   5740.04828   0.18942   0.10816    45.000   6458.20  34095.00   3829.60  35409.40   5
    6.015   5739.81924   0.00035   0.48138    45.000     13.20  37219.40  14443.20  30004.00   5
    6.515   5739.59020   0.16106   0.86756    45.000   5534.00  34361.00  22465.20  25894.80   5
    7.013   5739.36116   0.55773   0.99664    45.000  16149.00  28955.17  24631.00  24714.00   6
    7.515   5739.13212   0.91531   0.77839    45.000  23190.00  25335.80  20692.80  26584.40   5
    8.015   5738.90308   0.98148   0.36524    45.000  24250.00  24707.60  11375.20  31144.80   5
    8.515   5738.67404   0.71065   0.04655    45.000  19261.00  27103.60   1671.00  35898.40   5
    9.015   5738.44500   0.29245   0.04512    45.000   9347.20  31962.00   1616.40  35827.20   5
    9.515   5738.21596   0.01946   0.36189    45.000    704.00  36184.80  11196.20  30938.60   5
   10.015   5737.98692   0.08261   0.77526    45.000   2890.80  34993.20  20357.80  26259.40   5
   10.515   5737.75788   0.43771   0.99608    45.000  13050.00  29814.60  24163.00  24258.00   5
   11.015   5737.52884   0.83638   0.86989    45.000  21373.20  25554.40  21969.80  25256.00   5
   11.515   5737.29980   0.99977   0.48496    45.000  24091.00  24096.60  14106.80  29088.80   5
   12.015   5737.07076   0.81356   0.11054    45.000  20844.20  25621.20   3775.60  34155.60   5
   12.515   5736.84172   0.40802   0.00854    45.000  12180.80  29854.00    305.60  35792.00   5
   13.015   5736.61268   0.06683   0.25028    45.000   2318.00  34686.40   7973.60  31859.00   5
   13.513   5736.38364   0.02823   0.66557    45.000    995.00  35249.50  17851.33  26821.33   6
   14.015   5736.15460   0.31975   0.96637    45.000   9827.00  30734.20  23226.20  24034.60   5
   14.515   5735.92556   0.73731   0.94006    45.000  19150.20  25973.40  22732.80  24182.20   5
   15.015   5735.69652   0.98865   0.60580    45.000  23453.80  23723.00  16482.40  27208.20   5
   15.515   5735.46748   0.89810   0.19752    45.000  21909.60  24395.60   6354.80  32173.20   5
   16.015   5735.23844   0.52907   0.00085    45.000  14748.60  27876.80     29.80  35236.20   5
   16.515   5735.00940   0.13969   0.15334    45.000   4589.80  32857.00   5006.20  32649.00   5
   17.015   5734.78036   0.00235   0.54830    45.000     82.40  35011.80  15084.00  27510.80   5
   17.515   5734.55132   0.21309   0.90948    45.000   6731.00  31588.00  21852.40  24027.40   5
   18.015   5734.32228   0.62451   0.98420    45.000  16587.00  26560.40  22990.20  23359.20   5
   18.515   5734.09324   0.94884   0.72027    45.000  22365.80  23571.80  18404.40  25552.40   5
   19.015   5733.86420   0.95922   0.30223    45.000  22466.60  23421.80   9098.80  30106.00   5
   19.513   5733.63516   0.64950   0.02288    45.000  16942.00  26085.17    781.83  34165.17   6
   20.015   5733.40612   0.23406   0.07658    45.000   7219.80  30846.40   2541.40  33185.40   5
   20.515   5733.17708   0.00538   0.42693    45.000    184.20  34264.60  12087.40  28313.00   5
   21.015   5732.94804   0.12291   0.82830    45.000   3966.60  32273.80  20065.00  24224.40   5
   21.515   5732.71900   0.50423   0.99997    45.000  13755.20  27279.80  22771.20  22771.80   5
   22.015   5732.48996   0.88261   0.82186    45.000  20855.60  23629.60  19838.40  24138.40   5
   22.515   5732.26092   0.99332   0.41861    45.000  22537.60  22689.20  11754.60  28080.60   5
   23.015   5732.03188   0.75896   0.07230    45.000  18627.60  24543.80   2362.40  32677.00   5
   23.515   5731.80284   0.34346   0.02514    45.000   9895.00  28810.80    838.20  33339.00   5
   24.015   5731.57380   0.03745   0.31014    45.000   1237.20  33039.60   9037.20  29140.00   5
   24.515   5731.34476   0.05498   0.72792    45.000   1795.60  32660.40  17909.40  24603.80   5
   25.015   5731.11572   0.38379   0.98628    45.000  10773.40  28071.80  22100.60  22408.00   5
   25.515   5730.88668   0.79387   0.90450    45.000  18957.20  23879.60  20776.40  22970.20   5
   26.015   5730.65764   0.99840   0.53976    45.000  22148.20  22183.80  14136.20  26190.00   5
   26.513   5730.42860   0.85514   0.14806    45.000  19862.33  23227.17   4570.83  30872.67   6
   27.015   5730.19956   0.46277   0.00139    45.000  12423.40  26846.40     46.00  33035.20   5
   27.515   5729.97052   0.09686   0.20424    45.000   3044.60  31435.60   6107.40  29904.00   5
   28.015   5729.74148   0.01317   0.61401    45.000    430.00  32642.40  15435.80  25139.60   5
   28.505   5729.51244   0.26202   0.93973    45.000   7589.20  28964.40  20944.20  22287.40   5
   29.014   5729.28340   0.68634   0.96395    45.000  16687.20  24313.60  21241.80  22036.20   5
   29.514   5729.05436   0.97395   0.65926    45.000  21324.00  21894.40  16142.00  24485.40   5
   30.004   5728.82532   0.93360   0.25102    45.000  20659.20  22128.60   7239.00  28838.80   5
   30.513   5728.59628   0.58525   0.00733    45.000  14649.40  25031.20    236.20  32237.80   5
   31.014   5728.36724   0.18039   0.11548    45.000   5337.00  29586.40   3521.40  30494.40   5
   31.504   5728.13820   0.00024   0.48408    45.000      7.60  32152.80  12532.80  25890.20   5
   32.013   5727.90916   0.16866   0.87442    45.000   4985.60  29561.40  19502.20  22303.00   5
   32.514   5727.68012   0.56998   0.99506    45.000  14173.20  24866.60  21232.00  21337.40   5
   33.004   5727.45108   0.91689   0.77602    45.000  20026.40  21841.60  17809.60  22950.00   5
   33.512   5727.22204   0.97892   0.35645    45.000  20868.67  21318.00   9605.83  26949.17   6
   34.014   5726.99300   0.70079   0.04210    45.000  16425.40  23438.60   1305.00  30998.60   5
   34.515   5726.76396   0.28216   0.04994    45.000   7801.40  27649.40   1537.20  30781.40   5
   35.015   5726.53492   0.01638   0.37308    45.000    510.80  31194.00   9888.20  26505.00   5
   35.515   5726.30588   0.08917   0.78498    45.000   2676.00  30010.20  17671.60  22512.40   5
   36.015   5726.07684   0.44942   0.99743    45.000  11466.40  25514.40  20795.80  20849.40   5
   36.515   5725.84780   0.84505   0.86183    45.000  18502.20  21895.00  18759.00  21766.60   5
   37.015   5725.61876   0.99925   0.47313    45.000  20686.40  20702.00  11878.20  25106.20   5
   37.515   5725.38972   0.80423   0.10322    45.000  17749.00  22069.60   3037.20  29425.80   5
   38.015   5725.16068   0.39638   0.01086    45.000  10203.20  25741.60    333.00  30676.80   5
   38.515   5724.93164   0.06102   0.26063    45.000   1820.40  29831.80   7088.40  27197.60   5
   39.015   5724.70260   0.03270   0.67783    45.000    985.80  30147.80  15511.80  22884.80   5
   39.515   5724.47356   0.33123   0.97062    45.000   8678.20  26200.60  19957.00  20561.00   5
   40.015   5724.24452   0.74781   0.93426    45.000  16567.20  22154.60  19382.80  20746.80   5
   40.515   5724.01548   0.99104   0.59408    45.000  20103.40  20285.20  13895.20  23389.60   5
   41.013   5723.78644   0.89152   0.18905    45.000  18644.83  20913.50   5222.33  27624.50   6
   41.515   5723.55740   0.51759   0.00031    45.000  12390.40  23939.00      9.20  30129.60   5
   42.015   5723.32836   0.13165   0.16188    45.000   3709.60  28177.80   4497.60  27784.20   5
   42.515   5723.09932   0.00362   0.56002    45.000    108.20  29877.20  13095.20  23383.60   5
   43.015   5722.87028   0.22285   0.91614    45.000   5981.00  26839.20  18742.80  20458.40   5
   43.515   5722.64124   0.63596   0.98113    45.000  14344.60  22556.00  19567.80  19944.20   5
   44.015   5722.41220   0.95395   0.70956    45.000  19135.20  20059.00  15516.60  21868.20   5
   44.515   5722.18316   0.95439   0.29139    45.000  19075.60  19987.20   7509.00  25770.60   5
   45.015   5721.95412   0.63699   0.01914    45.000  14215.00  22316.00    557.80  29144.40   5
   45.515   5721.72508   0.22377   0.08323    45.000   5900.80  26371.00   2342.80  28150.40   5
   46.015   5721.49604   0.00376   0.43883    45.000    109.60  29165.20  10515.20  23962.40   5
   46.515   5721.26700   0.13085   0.83723    45.000   3576.00  27330.20  17184.60  20525.60   5
   47.015   5721.03796   0.51613   0.99971    45.000  11904.00  23064.20  19340.40  19346.00   5
   47.513   5720.80892   0.88941   0.81360    45.000  17800.67  20014.17  16722.17  20553.50   6
   48.015   5720.57988   0.99130   0.40730    45.000  19096.60  19264.20   9749.60  23937.60   5
