[CRDS Header]
FileType=Wavelength Monitor Calibration
Filename=/home/picarro/SI2000\InstrConfig\Integration\Laser_14099498_NH3.wlm
Date=20150306
Time=184514

[Parameters]
laser_current=36000.00
etalon1_offset=6551.81
reference1_offset=6552.80
etalon2_offset=6532.97
reference2_offset=6553.12

[Data column names]
0=Laser temperature
1=Wavenumber
2=Wavelength ratio 1
3=Wavelength ratio 2
4=Etalon temperature
5=Etalon 1 (offset removed)
6=Reference 1 (offset removed)
7=Etalon 2 (offset removed)
8=Reference 2 (offset removed)
9=Points averaged

[Data]
    5.500   6555.30314   0.30339   0.21508    44.708   8009.99  26402.20   6387.69  29699.71   5
    6.003   6555.10213   0.04479   0.88525    44.706   1378.62  30782.49  18840.74  21283.31   7
    6.504   6554.87294   0.42296   1.59070    44.705  10414.52  24623.03  26042.53  16371.71   6
    7.004   6554.61543   1.18468   1.73505    44.703  20798.59  17556.40  27067.63  15598.55   5
    7.503   6554.37269   1.72907   1.20445    44.703  25170.59  14554.60  22446.03  18636.08   4
    8.004   6554.17712   1.60087   0.44486    44.702  24224.69  15132.20  11506.19  25865.21   6
    8.505   6553.91788   0.90552   0.05676    44.702  17655.99  19498.20   1831.63  32270.48   5
    9.003   6553.69069   0.22434   0.28960    44.701   6097.35  27179.03   8112.36  28012.38   6
    9.501   6553.41686   0.06174   1.00294    44.701   1849.99  29963.00  20021.83  19963.28   5
   10.005   6553.17550   0.52884   1.65977    44.700  12140.19  22956.60  26158.03  15760.08   5
   10.503   6552.93200   1.30136   1.69061    44.700  21537.52  16550.03  26305.19  15563.21   5
   11.002   6552.70327   1.75884   1.08061    44.701  24947.19  14183.45  20750.53  19202.63   4
   11.503   6552.47805   1.51267   0.34298    44.701  23173.39  15319.60   9197.83  26792.71   5
   12.004   6552.23691   0.77032   0.05188    44.701  15651.19  20318.00   1650.63  31818.28   5
   12.506   6551.97600   0.14859   0.39288    44.701   4156.99  27975.80  10232.03  26043.48   5
   13.007   6551.78143   0.10409   1.15182    44.702   2987.19  28698.80  21340.43  18521.68   4
   13.515   6551.50841   0.67516   1.72718    44.702  14232.99  21062.40  26222.83  15187.55   4
   14.031   6551.28826   1.46234   1.59278    44.702  22533.39  15409.20  25183.43  15811.08   5
   14.548   6551.05683   1.76314   0.85480    44.703  24591.19  13947.37  17723.86  20700.88   5
   15.043   6550.75779   1.32932   0.20008    44.704  21357.19  16067.80   5722.23  28611.08   5
   15.542   6550.50665   0.55662   0.08501    44.705  12291.19  22088.00   2603.23  30628.08   5
   16.037   6550.30544   0.07204   0.57533    44.706   2078.35  28858.37  13415.36  23324.55   6
   16.527   6550.05534   0.19375   1.33529    44.707   5166.39  26670.20  22718.83  16984.08   4
   17.019   6549.82188   0.84838   1.76885    44.707  16223.99  19124.60  25985.23  14690.48   5
   17.515   6549.56023   1.56515   1.49667    44.709  22816.59  14578.00  23896.03  15966.28   5
   18.014   6549.30108   1.74249   0.74691    44.710  23915.99  13725.20  15838.43  21175.38   5
   18.512   6549.04621   1.22680   0.14709    44.711  19973.19  16263.53   4237.53  28811.38   5
   19.011   6548.82869   0.45533   0.12171    44.713  10316.02  22656.53   3548.86  29159.71   6
   19.510   6548.59796   0.04835   0.69536    44.714   1380.02  28541.37  14915.19  21449.71   6
   20.007   6548.33455   0.28187   1.46093    44.714   6953.39  24669.00  23118.63  15824.68   5
   20.507   6548.07770   1.00919   1.77537    44.716  17561.69  17401.87  25294.03  14247.21   6
   21.007   6547.81432   1.66275   1.36011    44.718  22830.76  13730.77  22100.74  16249.31   7
   21.505   6547.60074   1.68161   0.58274    44.720  22861.79  13595.20  12934.83  22200.88   4
   22.008   6547.35867   1.04769   0.08270    44.721  17740.85  16933.37   2407.36  29103.17   6
   22.504   6547.11050   0.31060   0.20856    44.723   7382.39  23768.40   5602.03  26840.08   4
   23.003   6546.86323   0.04457   0.88446    44.724   1237.59  27765.00  16933.43  19145.68   5
   23.503   6546.60765   0.42870   1.60088    44.725   9468.59  22087.00  23448.23  14647.08   5
   24.003   6546.34577   1.20589   1.73772    44.727  18853.85  15634.87  24272.86  13968.21   6
   24.503   6546.11251   1.73950   1.17318    44.729  22594.35  12987.37  19757.86  16841.38   5
   25.003   6545.89366   1.56589   0.40380    44.731  21405.39  13669.80   9500.63  23528.28   5
   25.503   6545.63101   0.83838   0.05232    44.733  14986.79  17876.00   1503.03  28729.48   5
   26.002   6545.38641   0.17842   0.34713    44.735   4433.79  24850.40   8352.23  24047.48   4
   26.502   6545.12149   0.08681   1.10419    44.736   2272.79  26182.60  18746.03  16977.28   5
   27.002   6544.88096   0.62706   1.71395    44.737  12159.35  19391.20  23473.53  13695.55   6
   27.501   6544.66688   1.40851   1.63853    44.739  19852.39  14094.60  22886.43  13967.68   5
   28.000   6544.40636   1.76886   0.94735    44.742  22084.99  12485.60  16899.53  17838.88   4
   28.501   6544.16146   1.39109   0.24140    44.744  19580.39  14075.60   6027.03  24966.88   5
   29.001   6543.91012   0.60815   0.07152    44.746  11712.85  19260.03   1971.23  27560.88   5
   29.500   6543.65031   0.08113   0.54396    44.748   2079.39  25629.80  11485.43  21132.38   5
   30.001   6543.42802   0.19124   1.33450    44.749   4560.02  23845.03  20227.03  15157.05   6
   30.499   6543.17725   0.86972   1.77203    44.750  14698.99  16901.00  23177.63  13079.68   5
   30.999   6542.92757   1.59118   1.46764    44.752  20507.39  12888.20  21084.83  14366.48   5
   31.499   6542.67033   1.72781   0.69427    44.754  21243.79  12295.20  13438.03  19355.68   5
   32.000   6542.43203   1.15837   0.11714    44.756  17237.02  14880.53   3063.86  26156.55   6
   32.500   6542.19697   0.38422   0.15786    44.758   8051.85  20956.53   4016.03  25440.38   6
   33.000   6541.93295   0.04168   0.79391    44.760   1064.79  25546.70  14528.36  18299.88   5
   33.499   6541.69592   0.36630   1.54420    44.762   7694.59  20951.20  21189.83  13726.28   3
   34.000   6541.43127   1.14366   1.74987    44.763  16812.39  14709.20  22399.53  12800.71   5
   34.500   6541.17226   1.72446   1.22428    44.765  20665.59  11983.80  18607.03  15198.38   4
   35.001   6540.92973   1.59715   0.44130    44.766  19850.19  12428.53   9373.69  21241.05   6
   35.500   6540.67351   0.87601   0.05443    44.768  14148.19  16141.03   1437.53  26411.05   5
   36.000   6540.43492   0.19342   0.32542    44.770   4366.99  22590.60   7290.43  22403.08   4
   36.500   6540.20883   0.08175   1.08099    44.772   1967.35  24066.70  17018.19  15743.21   6
   37.000   6539.95659   0.62021   1.70255    44.774  11043.59  17806.20  21468.23  12609.48   5
   37.500   6539.70481   1.41094   1.63058    44.776  18164.39  12874.00  20921.43  12830.68   5
   38.000   6539.45107   1.76971   0.93051    44.777  20152.35  11387.37  15286.86  16428.55   6
   38.499   6539.19763   1.37577   0.22981    44.779  17728.39  12886.20   5277.83  22966.68   5
   38.999   6538.93685   0.58222   0.07748    44.781  10312.99  17713.20   1941.43  25056.08   5
   39.501   6538.68531   0.07022   0.57854    44.783   1642.39  23388.80  10921.43  18888.21   5
   40.000   6538.44020   0.21965   1.37159    44.784   4654.59  21190.80  18597.23  13553.88   4
   40.499   6538.19463   0.93091   1.77006    44.786  13824.39  14850.40  20922.83  11820.38   4
   41.000   6537.95650   1.63360   1.40841    44.787  18667.02  11431.37  18593.69  13201.88   5
   41.499   6537.71483   1.70115   0.61987    44.788  18906.19  11113.80  11151.83  17990.68   5
   42.000   6537.43354   1.07364   0.08953    44.790  14759.35  13752.20   2135.83  23856.48   5
   42.499   6537.19007   0.31246   0.20605    44.792   6071.99  19432.80   4551.03  22086.88   5
   42.999   6536.94564   0.04639   0.89746    44.793   1051.19  22659.20  13992.43  15591.28   5
   43.499   6536.70674   0.46152   1.61828    44.795   8164.19  17702.80  19250.23  11895.48   3
   43.999   6536.45179   1.26062   1.71456    44.796  15723.19  12472.60  19664.03  11468.88   5
   44.500   6536.18684   1.75820   1.09974    44.798  18448.52  10492.87  15486.53  14085.88   5
   44.999   6535.95295   1.50304   0.33450    44.799  17019.79  11323.60   6633.83  19832.28   5
   45.499   6535.68136   0.72711   0.05461    44.801  11051.59  15199.40   1271.23  23278.68   5
   45.999   6535.44246   0.11784   0.45022    44.802   2454.99  20832.60   8296.23  18438.55   5
   46.500   6535.18162   0.14555   1.24967    44.803   2961.59  20348.00  16220.03  12978.68   4
   46.998   6534.96183   0.79275   1.76266    44.804  11472.79  14472.20  19154.23  10866.68   5
   47.500   6534.69475   1.55270   1.51755    44.805  16754.79  10789.20  17719.53  11676.38   4
   47.999   6534.45385   1.74250   0.74269    44.806  17586.39  10092.60  11587.83  15602.68   5
   48.498   6534.19677   1.19074   0.13048    44.807  14402.19  12101.60   2781.43  21306.71   4
   49.000   6533.93429   0.39612   0.15123    44.809   6770.33  17091.91   3165.60  20933.02   7
   49.500   6533.67921   0.04190   0.79534    44.810    876.39  20917.00  11893.23  14953.68   5
   50.001   6533.44798   0.38024   1.56097    44.811   6466.85  17007.37  17387.19  11138.71   6
