[CRDS Header]
FileType=Wavelength Monitor Calibration
Filename=C:\Picarro\G2000\InstrConfig\Integration\Laser_16217986_HCL.wlm
Date=20170518
Time=132628

[Parameters]
laser_current=36000.00
etalon1_offset=6514.75
reference1_offset=6514.66
etalon2_offset=6507.74
reference2_offset=6524.99

[Data column names]
0=Laser temperature
1=Wavenumber
2=Wavelength ratio 1
3=Wavelength ratio 2
4=Etalon temperature
5=Etalon 1 (offset removed)
6=Reference 1 (offset removed)
7=Etalon 2 (offset removed)
8=Reference 2 (offset removed)
9=Points averaged

[Data]
    3.010   5741.38426   0.38260   1.48602    44.945   4337.92  11338.01  11694.76   7869.85   6
    3.520   5741.15677   1.10277   1.72025    44.947   8921.65   8090.34  12506.26   7270.01   5
    4.018   5740.93595   1.65442   1.36740    44.948  10965.75   6628.18  11185.26   8180.01   6
    4.509   5740.71547   1.69762   0.69141    44.948  11078.85   6526.14   7459.46  10789.61   5
    5.008   5740.49231   1.19499   0.13759    44.950   9278.05   7764.14   2008.06  14595.01   5
    5.514   5740.26682   0.46744   0.06877    44.952   5010.25  10718.84   1046.10  15212.18   6
    6.006   5740.04767   0.04359   0.51327    44.952    600.08  13768.84   5989.93  11670.68   6
    6.519   5739.82218   0.15942   1.22447    44.953   2026.45  12711.34  10385.26   8481.41   5
    7.006   5739.60403   0.73701   1.68569    44.954   6828.25   9264.94  12110.66   7184.41   5
    7.512   5739.38121   1.42459   1.61049    44.956   9965.42   6995.34  11807.60   7331.68   6
    8.013   5739.15972   1.74900   1.03653    44.957  10928.08   6248.18   9329.43   9000.68   6
    8.502   5738.93790   1.48928   0.36082    44.957  10081.75   6769.59   4456.26  12350.76   4
    9.008   5738.71508   0.82431   0.02983    44.958   7204.65   8740.34    450.26  15094.01   5
    9.503   5738.49993   0.21106   0.22559    44.959   2528.85  11981.74   2988.46  13247.81   5
   10.007   5738.27611   0.02327   0.84749    44.960    313.85  13486.14   8108.46   9567.61   5
   10.501   5738.06030   0.37509   1.48449    44.961   4050.45  10799.14  11035.06   7433.61   5
   11.002   5737.83781   1.07247   1.72947    44.961   8290.50   7730.34  11785.51   6814.51   4
   11.502   5737.61032   1.64434   1.38438    44.962  10270.58   6246.01  10531.43   7607.35   6
   12.001   5737.38916   1.69737   0.70377    44.963  10356.25   6101.34   7026.26   9983.85   6
   12.505   5737.17335   1.20206   0.14338    44.964   8661.08   7205.18   1931.76  13473.01   6
   12.997   5736.95153   0.50951   0.05554    44.964   4961.08   9737.01    787.76  14185.01   6
   13.503   5736.73071   0.05212   0.48587    44.965    661.08  12684.51   5305.76  10920.18   6
   14.001   5736.50989   0.12704   1.17074    44.966   1525.05  12004.14   9346.06   7983.01   5
   14.507   5736.28940   0.68568   1.67320    44.967   6005.25   8758.14  11109.06   6639.41   5
   15.006   5736.06925   1.38323   1.63967    44.968   9024.92   6524.51  10920.76   6660.35   6
   15.496   5735.85343   1.74226   1.10721    44.968  10007.25   5743.84   8869.01   8010.26   4
   16.001   5735.62694   1.53512   0.41390    44.969   9378.85   6109.54   4545.06  10981.21   5
   16.503   5735.40446   0.88553   0.03765    44.970   6896.25   7787.74    517.26  13738.81   5
   17.001   5735.18898   0.25495   0.18565    44.970   2723.85  10683.94   2309.66  12440.81   5
   17.505   5734.97049   0.01589   0.76929    44.971    197.58  12435.01   7001.10   9100.68   6
   17.999   5734.75467   0.31965   1.43103    44.972   3274.65  10244.54   9966.86   6964.81   5
   18.502   5734.53019   0.99101   1.72905    44.973   7306.85   7373.14  10880.26   6292.61   5
   18.999   5734.31204   1.59212   1.45958    44.973   9365.92   5882.68  10014.43   6861.18   6
   19.506   5734.09355   1.72373   0.78730    44.974   9669.25   5609.51   7021.10   8918.01   6
   20.002   5733.87974   1.30059   0.20105    44.974   8384.25   6446.48   2431.12  12092.01   7
   20.507   5733.65758   0.61108   0.03409    44.975   5250.05   8591.54    457.66  13423.61   5
   21.011   5733.43409   0.09146   0.38852    44.976   1049.65  11476.74   4167.26  10726.41   5
   21.513   5733.21628   0.07897   1.05707    44.976    908.25  11500.68   8213.10   7769.68   6
   22.006   5733.00380   0.55558   1.60359    44.977   4822.45   8680.14  10143.66   6325.61   5
   22.512   5732.78398   1.25944   1.68679    44.977   8016.08   6364.84  10325.43   6121.35   6
   23.012   5732.56549   1.71769   1.21768    44.977   9287.58   5407.01   8741.26   7178.68   6
   23.508   5732.34234   1.62104   0.53647    44.978   9016.75   5562.34   5179.76   9655.35   6
   24.006   5732.12652   1.04835   0.07785    44.978   7177.25   6846.34    980.60  12596.51   6
   24.514   5731.90437   0.35806   0.11584    44.979   3404.39   9508.06   1424.12  12294.30   7
   25.011   5731.68722   0.02073   0.62493    44.979    243.75  11757.84   5777.26   9244.85   6
   25.519   5731.47174   0.21215   1.30212    44.979   2209.45  10414.74   9061.46   6959.01   5
   26.011   5731.25959   0.81767   1.70615    44.980   6225.25   7613.54  10354.66   6069.01   5
   26.527   5731.03577   1.49323   1.56028    44.981   8737.05   5851.14   9939.26   6370.21   5
   27.021   5730.81895   1.74898   0.97317    44.981   9410.45   5380.54   7723.06   7936.01   5
   27.512   5730.60180   1.46003   0.33228    44.981   8633.65   5913.34   3598.26  10829.01   5
   28.019   5730.38165   0.78274   0.02683    44.982   6037.85   7713.74    351.06  13084.41   5
   28.509   5730.17217   0.20052   0.23498    44.982   2099.05  10468.14   2682.86  11417.81   5
   29.004   5729.95769   0.02112   0.82910    44.983    248.05  11742.54   6937.86   8368.01   5
   29.507   5729.74354   0.37099   1.47871    44.983   3493.25   9416.18   9558.10   6463.85   6
   30.009   5729.52072   1.04821   1.72966    44.983   7129.65   6801.74  10245.86   5923.61   5
   30.502   5729.30724   1.61541   1.42652    44.984   8889.08   5502.68   9308.76   6525.51   6
   31.013   5729.08442   1.70968   0.75092    44.984   9076.25   5308.74   6394.66   8515.81   5
   31.507   5728.87327   1.27364   0.18615    44.984   7817.58   6138.01   2131.26  11449.18   6
   32.006   5728.65812   0.59159   0.03683    44.984   4839.85   8181.14    462.66  12562.21   5
   32.506   5728.44398   0.09539   0.38122    44.985   1031.68  10815.77   3856.55  10116.44   7
   33.002   5728.22816   0.06902   1.03454    44.985    756.45  10960.34   7641.06   7386.01   5
   33.509   5728.01268   0.54583   1.60651    44.985   4510.08   8262.84   9571.10   5957.68   6
   34.002   5727.79619   1.23019   1.70250    44.985   7503.05   6099.14   9793.46   5752.41   5
   34.504   5727.57804   1.70452   1.26025    44.986   8768.08   5144.01   8402.93   6667.68   6
   35.005   5727.36390   1.63989   0.57555    44.986   8560.25   5220.01   5124.93   8904.35   6
   35.497   5727.16042   1.11805   0.10493    44.986   6998.25   6259.34   1215.86  11587.41   5
   36.002   5726.94127   0.43211   0.08110    44.986   3684.75   8527.34    949.51  11708.01   4
   36.489   5726.74013   0.04177   0.51907    44.987    448.42  10735.34   4675.60   9007.85   6
   37.000   5726.51531   0.14851   1.20628    44.987   1476.85   9944.34   7964.86   6602.81   5
   37.488   5726.30783   0.70014   1.67441    44.987   5114.96   7305.91   9317.12   5564.44   7
   38.003   5726.07400   1.39920   1.62769    44.987   7634.75   5456.51   9134.10   5611.68   6
   38.501   5725.86719   1.74138   1.11191    44.988   8419.45   4834.94   7470.46   6718.61   5
   39.006   5725.65171   1.55654   0.44287    44.988   7955.11   5110.77   4026.98   9092.87   7
   39.496   5725.45658   0.96553   0.05473    44.988   6126.42   6346.18    625.60  11433.01   6
   40.004   5725.22642   0.30844   0.14479    44.988   2689.45   8719.54   1555.26  10741.61   5
   40.500   5725.01427   0.01684   0.66368    44.988    176.05  10451.94   5329.46   8030.21   5
   40.993   5724.81213   0.22433   1.31581    44.989   2042.42   9104.51   8007.76   6085.85   6
   41.498   5724.60432   0.83872   1.70621    44.989   5532.85   6598.74   9044.26   5300.81   5
   41.954   5724.40351   1.43105   1.60174    44.989   7447.50   5204.34   8747.01   5461.01   4
   42.493   5724.16935   1.74720   0.99387    44.989   8136.42   4656.84   6759.26   6801.01   6
   42.988   5723.96221   1.47929   0.35363    44.989   7481.25   5057.34   3255.26   9205.41   5
   43.502   5723.73238   0.81710   0.02970    44.989   5324.45   6516.34    332.66  11200.41   5
   44.002   5723.52491   0.22805   0.20672    44.990   2006.25   8797.68   2053.43   9933.85   6
   44.501   5723.31509   0.01679   0.77501    44.990    168.65  10042.74   5667.46   7312.81   5
   45.001   5723.10028   0.31678   1.42088    44.990   2615.92   8258.01   7972.10   5610.68   6
   45.500   5722.89814   0.94133   1.72189    44.990   5678.25   6032.14   8673.86   5037.41   5
   46.005   5722.68666   1.54251   1.51233    44.991   7357.05   4769.54   8098.26   5354.81   5
   46.502   5722.47051   1.74137   0.89860    44.991   7712.25   4428.84   6032.60   6713.35   6
   47.005   5722.25936   1.40719   0.28612    44.991   6905.85   4907.54   2586.86   9041.21   5
   47.503   5722.05556   0.76586   0.02645    44.991   4815.58   6287.84    279.26  10559.18   6
   48.000   5721.84174   0.18587   0.24997    44.991   1575.05   8473.94   2262.86   9052.61   5
   48.497   5721.63727   0.02220   0.83495    44.991    207.45   9345.34   5542.06   6637.61   5
   49.002   5721.42846   0.34826   1.45660    44.991   2630.08   7552.01   7498.60   5148.01   6
   49.501   5721.21131   0.99834   1.72971    44.992   5460.05   5469.14   8054.26   4656.41   5
   49.969   5721.02484   1.54385   1.51302    44.992   6824.85   4420.74   7499.66   4956.81   5
