[CRDS Header]
FileType=Wavelength Monitor Calibration
Filename=C:\Picarro\G2000\InstrConfig\Integration\Laser_16246478_HCL.wlm
Date=20170607
Time=072514

[Parameters]
laser_current=36000.00
etalon1_offset=6514.67
reference1_offset=6514.63
etalon2_offset=6507.92
reference2_offset=6525.29

[Data column names]
0=Laser temperature
1=Wavenumber
2=Wavelength ratio 1
3=Wavelength ratio 2
4=Etalon temperature
5=Etalon 1 (offset removed)
6=Reference 1 (offset removed)
7=Etalon 2 (offset removed)
8=Reference 2 (offset removed)
9=Points averaged

[Data]
    3.001   5741.25484   0.77179   1.69354    45.022   7270.16   9419.87  12556.25   7414.21   6
    3.506   5741.02618   1.46758   1.58414    45.022  10473.13   7136.37  12146.08   7667.31   5
    4.008   5740.79966   1.75209   0.97723    45.022  11355.93   6481.37   9371.88   9590.31   5
    4.508   5740.57470   1.43635   0.30967    45.022  10308.33   7176.77   4103.48  13251.31   5
    5.008   5740.35141   0.74453   0.02593    45.022   7027.93   9439.57    409.68  15799.51   5
    5.507   5740.12749   0.15209   0.29030    45.022   1970.08  12953.87   3866.33  13318.71   4
    6.010   5739.90234   0.04561   0.95334    45.023    631.33  13841.94   9104.08   9549.71   7
    6.508   5739.67685   0.49650   1.57196    45.023   5236.33  10546.57  11847.68   7536.91   5
    7.008   5739.45139   1.21568   1.70642    45.023   9271.93   7626.97  12237.28   7171.31   5
    7.508   5739.22770   1.70500   1.26409    45.023  10911.93   6399.97  10507.68   8312.51   5
    8.009   5739.00438   1.63229   0.56224    45.023  10642.13   6519.77   6297.68  11201.11   5
    8.507   5738.78093   1.05305   0.08127    45.024   8425.13   8000.77   1194.48  14697.91   5
    9.007   5738.55767   0.35972   0.11387    45.024   3975.53  11051.77   1627.88  14296.31   5
    9.507   5738.33455   0.01869   0.64526    45.024    253.93  13585.37   6807.08  10549.51   5
   10.007   5738.11296   0.23812   1.33834    45.024   2789.13  11713.37  10493.48   7840.71   5
   10.509   5737.89118   0.88363   1.72429    45.024   7396.16   8370.20  11777.25   6830.21   6
   11.006   5737.66936   1.52861   1.53611    45.024   9925.53   6493.17  11084.08   7215.71   5
   11.507   5737.44790   1.74411   0.90405    45.024  10481.33   6009.57   8248.08   9123.51   5
   12.007   5737.22465   1.37635   0.26060    45.025   9297.50   6755.20   3267.41  12538.04   6
   12.507   5737.00123   0.67541   0.02736    45.025   6052.66   8961.54    395.75  14466.04   6
   13.006   5736.78011   0.11997   0.33636    45.025   1454.53  12124.17   3988.28  11857.31   5
   13.506   5736.55572   0.06213   1.01041    45.025    777.93  12521.97   8597.68   8509.11   5
   14.008   5736.33283   0.54370   1.60319    45.025   5104.50   9388.54  10887.08   6790.88   6
   14.506   5736.11151   1.24679   1.69903    45.025   8560.13   6865.77  11111.48   6539.91   5
   15.010   5735.89119   1.71253   1.24151    45.025   9939.13   5803.77   9457.68   7617.91   5
   15.512   5735.66891   1.62214   0.54432    45.026   9639.33   5942.37   5592.48  10274.51   5
   16.014   5735.44865   1.03825   0.07615    45.026   7596.66   7316.87   1021.91  13419.88   6
   16.514   5735.22730   0.35460   0.11616    45.026   3579.83  10095.70   1513.25  13027.54   6
   17.014   5735.00612   0.01874   0.64121    45.026    232.53  12406.77   6200.08   9669.51   5
   17.515   5734.78523   0.23501   1.32999    45.026   2525.83  10748.20   9591.25   7211.54   6
   18.013   5734.56508   0.87061   1.71596    45.026   6729.13   7729.37  10802.48   6295.31   5
   18.514   5734.34606   1.51809   1.54072    45.026   9096.93   5992.37  10220.08   6633.31   5
   19.014   5734.12504   1.74591   0.92205    45.026   9644.33   5523.97   7689.08   8339.31   5
   19.514   5733.90522   1.40195   0.28097    45.026   8627.53   6153.97   3206.68  11413.11   5
   20.016   5733.68654   0.71897   0.02578    45.026   5801.04   8068.65    343.94  13343.42   7
   20.514   5733.46668   0.14796   0.29363    45.027   1618.73  10940.97   3287.68  11196.91   5
   21.016   5733.24750   0.04289   0.93776    45.027    500.33  11664.65   7579.79   8083.00   7
   21.514   5733.02855   0.46838   1.54774    45.027   4211.16   8991.20   9879.25   6383.04   6
   22.014   5732.80976   1.16367   1.71479    45.027   7617.53   6546.17  10318.08   6017.11   5
   22.514   5732.59161   1.67864   1.32777    45.027   9132.73   5440.57   9086.28   6843.31   5
   23.013   5732.37343   1.67539   0.64802    45.027   9102.33   5432.97   5877.48   9070.11   5
   23.514   5732.15644   1.15751   0.12381    45.028   7544.83   6518.20   1502.91  12139.38   6
   24.014   5731.93813   0.46510   0.06768    45.028   4145.16   8912.70    852.75  12600.21   6
   24.512   5731.71901   0.04199   0.51482    45.028    482.33  11487.57   4985.88   9684.91   5
   25.014   5731.49919   0.15126   1.20603    45.028   1617.00  10690.37   8592.75   7124.88   6
   25.510   5731.28154   0.72198   1.68071    45.028   5654.53   7832.17  10118.08   6020.11   5
   26.013   5731.06345   1.40319   1.62901    45.028   8314.13   5925.17   9942.68   6103.51   5
   26.510   5730.84767   1.74357   1.08838    45.028   9186.66   5268.87   8050.75   7397.04   6
   27.011   5730.63046   1.53088   0.41645    45.028   8614.33   5627.04   4192.08  10066.21   6
   27.509   5730.41427   0.90359   0.04239    45.028   6433.53   7119.97    533.68  12589.31   5
   28.009   5730.19862   0.26798   0.17203    45.028   2620.33   9778.20   1984.41  11535.71   6
   28.507   5729.98304   0.01511   0.73475    45.028    173.33  11471.77   6240.28   8493.11   5
   29.008   5729.76786   0.29062   1.39750    45.028   2789.83   9599.54   9050.25   6476.04   6
   29.508   5729.55027   0.94278   1.72955    45.028   6532.13   6928.57   9990.08   5776.11   5
   30.007   5729.33252   1.55773   1.50351    45.029   8536.16   5479.87   9329.08   6204.88   6
   30.507   5729.11621   1.73688   0.87416    45.029   8950.04   5152.94   6893.22   7885.57   7
   31.005   5728.90103   1.37114   0.25854    45.029   7973.93   5815.57   2782.08  10760.71   5
   31.505   5728.68491   0.69299   0.02661    45.029   5312.13   7665.57    331.48  12455.91   5
   32.005   5728.46719   0.13533   0.31216    45.029   1404.93  10381.37   3237.28  10370.51   5
   32.505   5728.25161   0.04580   0.95306    45.029    503.13  10985.57   7187.88   7541.91   5
   33.006   5728.03713   0.46481   1.55119    45.029   3961.33   8522.51   9316.65   6006.14   7
   33.505   5727.82391   1.14429   1.72243    45.029   7144.00   6243.20   9757.91   5665.21   6
   34.004   5727.61053   1.66200   1.36086    45.029   8599.13   5173.97   8679.68   6378.11   5
   34.504   5727.39705   1.69334   0.69764    45.029   8628.50   5095.54   5815.08   8335.38   6
   35.003   5727.18097   1.21077   0.15140    45.030   7257.53   5994.17   1690.68  11167.31   5
   35.504   5726.96512   0.52226   0.05083    45.029   4214.13   8069.17    603.08  11865.71   5
   36.003   5726.74990   0.06394   0.44682    45.030    670.93  10492.57   4151.48   9291.31   5
   36.504   5726.53636   0.10508   1.11629    45.030   1066.33  10148.37   7579.08   6789.54   6
   37.003   5726.32131   0.61963   1.63743    45.030   4673.33   7542.17   9163.88   5596.51   5
   37.503   5726.10679   1.30302   1.67566    45.030   7313.53   5612.77   9205.28   5493.51   5
   38.004   5725.89351   1.72169   1.20918    45.030   8325.00   4835.37   7775.25   6430.21   6
   38.504   5725.68070   1.61699   0.53805    45.030   8044.83   4975.20   4623.75   8593.54   6
   39.004   5725.46718   1.05569   0.08291    45.030   6406.66   6068.70    923.25  11135.54   6
   39.503   5725.25510   0.39226   0.09612    45.030   3234.93   8246.97   1056.48  10991.91   5
   40.003   5725.04172   0.02835   0.57122    45.030    290.93  10260.57   4749.68   8315.11   5
   40.503   5724.82851   0.17496   1.24095    45.031   1620.16   9260.20   7662.08   6174.38   6
   41.004   5724.61696   0.74682   1.68303    45.031   5060.90   6776.65   8857.08   5262.57   7
   41.502   5724.40525   1.40388   1.62345    45.031   7250.13   5164.37   8651.88   5329.31   5
   42.003   5724.19407   1.74235   1.09981    45.031   7979.16   4579.54   7030.75   6392.71   6
   42.502   5723.98289   1.55394   0.44514    45.031   7515.16   4836.20   3820.25   8582.21   6
   43.002   5723.77111   0.95202   0.05283    45.031   5730.53   6019.37    569.88  10788.11   5
   43.502   5723.55930   0.31064   0.14144    45.031   2546.53   8197.77   1430.28  10112.51   5
   44.002   5723.34648   0.01684   0.66376    45.031    165.13   9803.97   4991.88   7520.71   5
   44.501   5723.13644   0.23244   1.32298    45.031   1968.33   8468.17   7500.88   5669.71   5
   45.001   5722.92339   0.84088   1.71104    45.031   5164.13   6141.37   8422.28   4922.31   5
   45.501   5722.71254   1.47443   1.57879    45.031   7007.93   4752.97   8041.88   5093.71   5
   46.002   5722.50227   1.74749   1.01820    45.032   7516.93   4301.57   6320.68   6207.71   5
   46.501   5722.29392   1.49792   0.38071    45.032   6931.13   4627.17   3169.08   8324.31   5
   47.002   5722.08638   0.88504   0.03961    45.032   5133.53   5800.37    402.68  10166.71   5
   47.501   5721.87747   0.27183   0.16856    45.032   2127.73   7827.57   1559.88   9254.31   5
   48.001   5721.66852   0.01521   0.71109    45.032    138.93   9136.77   4854.08   6826.31   5
   48.503   5721.45751   0.26308   1.36419    45.032   2030.13   7716.97   7054.08   5170.91   5
   49.001   5721.24676   0.88089   1.72143    45.032   4921.13   5586.57   7809.28   4536.51   5
   49.502   5721.03595   1.50097   1.55800    45.032   6531.00   4351.20   7374.08   4733.04   6
   50.002   5720.82817   1.74521   0.98695    45.032   6930.53   3971.17   5717.88   5793.51   5
