[CRDS Header]
FileType=Wavelength Monitor Calibration
Filename=/home/picarro/SI2000/InstrConfig/Integration/Laser_16127545_HF.wlm
Date=20170607
Time=154049

[Parameters]
laser_current=36000.00
etalon1_offset=6514.58
reference1_offset=6529.03
etalon2_offset=6508.84
reference2_offset=6531.80

[Data column names]
0=Laser temperature
1=Wavenumber
2=Wavelength ratio 1
3=Wavelength ratio 2
4=Etalon temperature
5=Etalon 1 (offset removed)
6=Reference 1 (offset removed)
7=Etalon 2 (offset removed)
8=Reference 2 (offset removed)
9=Points averaged

[Data]
    5.452   7826.46090   0.22369   0.34196    45.049   6868.59  30711.14  10389.49  30385.70   6
    5.998   7826.13737   0.14157   1.34298    45.049   4568.75  32271.97  26658.32  19850.20   6
    6.501   7825.83093   1.00088   1.72941    45.049  21227.62  21209.17  30267.16  17501.40   5
    7.004   7825.52645   1.71410   1.05423    45.049  28287.82  16502.97  23244.16  22048.60   5
    7.503   7825.22254   1.40023   0.20135    45.049  25621.62  18298.17   6579.36  32676.20   5
    8.004   7824.91883   0.44558   0.16765    45.050  12144.09  27255.31   5601.16  33410.03   6
    8.506   7824.61359   0.02225   0.98759    45.050    774.92  34822.47  22365.49  22646.70   6
    9.005   7824.31418   0.60899   1.71448    45.050  15309.42  25139.47  30110.82  17562.70   6
    9.504   7824.01087   1.52414   1.42458    45.050  26655.22  17488.77  27390.36  19227.00   5
   10.004   7823.70883   1.65664   0.48770    45.050  27678.42  16707.57  13617.76  27922.80   5
   10.504   7823.40458   0.83704   0.05769    45.050  18839.22  22507.17   2033.16  35245.40   5
   11.005   7823.10071   0.07259   0.58901    45.050   2416.82  33292.97  15617.76  26515.80   5
   11.506   7822.79823   0.27006   1.51156    45.050   7964.02  29489.97  27895.56  18454.80   5
   12.007   7822.49295   1.20055   1.67409    45.050  23110.62  19250.17  29187.36  17434.80   5
   12.513   7822.18761   1.74329   0.85595    45.050  27792.92  15942.81  19885.66  23232.36   6
   13.022   7821.87896   1.20941   0.10858    45.050  22972.92  18995.31   3626.99  33405.03   6
   13.507   7821.58779   0.30315   0.26386    45.050   8601.42  28373.97   8058.16  30539.60   5
   14.043   7821.25630   0.08547   1.23306    45.050   2740.92  32084.64  24445.16  19827.36   6
   14.540   7820.96523   0.86111   1.74959    45.050  18466.82  21451.57  29068.76  16614.60   5
   15.047   7820.65098   1.67208   1.19296    45.050  26521.59  15861.64  23699.66  19868.53   6
   15.535   7820.35241   1.52457   0.30386    45.050  25217.82  16541.57   8847.56  29126.60   5
   16.031   7820.06294   0.61609   0.09610    45.050  14464.59  23480.81   3137.99  32655.03   6
   16.519   7819.76977   0.02581   0.76736    45.049    834.02  32314.17  17755.96  23141.00   5
   17.017   7819.46636   0.40932   1.61840    45.049  10512.22  25683.97  27166.96  16786.40   5
   17.515   7819.16709   1.35420   1.58423    45.049  23097.62  17056.37  26681.16  16841.80   5
   18.013   7818.86611   1.73580   0.70919    45.049  25923.02  14934.37  16443.16  23186.40   5
   18.512   7818.56697   1.08991   0.07559    45.049  20176.25  18511.97   2412.32  31915.36   6
   19.011   7818.26626   0.19833   0.36736    45.049   5546.25  27965.64   9909.99  26976.70   6
   19.509   7817.96432   0.11295   1.28552    45.049   3302.02  29233.97  23280.36  18109.80   5
   20.009   7817.66401   0.92849   1.73956    45.049  17917.42  19297.57  26913.76  15471.60   5
   20.508   7817.36384   1.69577   1.14158    45.049  24690.02  14559.77  21442.36  18783.20   5
   21.007   7817.06190   1.47874   0.26017    45.049  22942.22  15514.77   7204.36  27691.60   5
   21.506   7816.76402   0.55055   0.11689    45.049  12329.62  22395.37   3504.76  29983.80   5
   22.005   7816.46311   0.01795   0.84722    45.049    539.62  30065.77  17614.76  20791.40   5
   22.507   7816.16101   0.49150   1.65916    45.049  11241.75  22872.64  25632.16  15448.86   6
   23.004   7815.86147   1.43129   1.52347    45.049  22182.02  15497.97  24496.36  16079.40   5
   23.504   7815.56186   1.71591   0.61809    45.049  24201.42  14104.14  14061.82  22750.86   6
   24.003   7815.25968   0.99423   0.06101    45.049  18058.62  18163.57   1865.16  30569.40   5
   24.503   7814.96111   0.14488   0.43797    45.049   3983.59  27496.14  10893.49  24873.36   6
   25.002   7814.66020   0.15876   1.36067    45.049   4334.02  27300.37  23092.96  16971.80   5
   25.502   7814.36183   1.01514   1.72708    45.049  18322.42  18049.37  26030.96  15072.20   5
   26.001   7814.06322   1.72004   1.06729    45.049  24280.42  14116.17  20167.56  18896.20   5
   26.503   7813.76018   1.41804   0.21461    45.049  22103.22  15587.17   6008.16  27995.60   5
   27.002   7813.46027   0.47720   0.14713    45.049  10977.62  23004.37   4298.36  29214.40   5
   27.503   7813.16276   0.01852   0.92551    45.049    554.42  29931.14  18556.82  20050.53   6
   28.003   7812.86126   0.56178   1.68933    45.049  12401.75  22075.97  25826.82  15288.20   6
   28.501   7812.56212   1.48517   1.47571    45.049  22612.22  15225.37  24104.56  16334.20   5
   29.001   7812.26471   1.69269   0.56004    45.049  24021.22  14191.17  13068.96  23336.20   5
   29.501   7811.96360   0.92782   0.05654    45.049  17240.75  18582.14   1723.82  30489.86   6
   30.001   7811.66453   0.11616   0.48371    45.048   3220.82  27728.57  11633.16  24050.00   5
   30.500   7811.36759   0.18944   1.40522    45.048   4998.22  26385.37  23078.36  16423.40   5
   31.000   7811.06862   1.06524   1.72017    45.048  18397.82  17271.17  25318.16  14718.40   5
   31.500   7810.76854   1.72865   1.02259    45.048  23516.22  13603.77  18959.16  18540.40   5
   32.001   7810.47130   1.37721   0.19237    45.048  20830.92  15125.47   5202.82  27046.20   6
   32.500   7810.17096   0.43913   0.16526    45.048   9755.62  22216.37   4508.16  27279.40   5
   33.001   7809.87292   0.02154   0.96524    45.048    603.75  28027.31  17812.16  18453.70   6
   33.500   7809.57565   0.59251   1.70532    45.048  11974.22  20209.77  24044.96  14100.00   5
   33.999   7809.27594   1.50670   1.45789    45.048  20985.82  13928.37  22018.76  15103.20   5
   34.500   7808.97744   1.67810   0.53896    45.048  21906.92  13054.64  11592.49  21509.20   6
   34.999   7808.67970   0.90458   0.05622    45.048  15471.82  17103.97   1555.76  27670.40   5
   35.499   7808.38329   0.10848   0.49769    45.048   2751.82  25368.57  10773.36  21647.20   5
   35.998   7808.08585   0.19720   1.41942    45.048   4710.67  23887.97  21028.91  14815.20   4
   36.499   7807.78705   1.07911   1.72292    45.048  16842.22  15607.57  22972.36  13333.40   5
   37.000   7807.48891   1.72913   1.01611    45.048  21416.42  12385.64  17155.49  16883.70   6
   37.499   7807.19163   1.37059   0.19096    45.048  18984.42  13851.31   4707.32  24651.86   6
   38.000   7806.89603   0.43508   0.16663    45.048   8888.75  20430.64   4156.32  24944.03   6
   38.499   7806.59756   0.02114   0.96217    45.048    546.82  25862.37  16357.16  17000.40   5
   38.999   7806.29992   0.58486   1.70606    45.048  10980.02  18773.97  22238.76  13035.20   5
   39.499   7806.00461   1.49543   1.47476    45.048  19432.25  12994.47  20574.82  13951.36   6
   39.999   7805.70817   1.68696   0.56271    45.048  20484.42  12142.77  11152.56  19819.80   5
   40.500   7805.41284   0.92795   0.05733    45.048  14693.42  15834.47   1481.99  25848.53   6
   41.000   7805.11353   0.11791   0.47841    45.047   2781.82  23593.37   9782.16  20447.40   5
   41.499   7804.81946   0.18230   1.39686    45.047   4107.82  22533.37  19515.16  13970.80   5
   42.002   7804.52179   1.04914   1.73063    45.048  15476.42  14751.64  21540.32  12446.53   6
   42.499   7804.22522   1.72119   1.06303    45.048  19920.62  11573.77  16459.76  15484.00   5
   42.999   7803.93135   1.41070   0.21741    45.048  17902.82  12690.77   4920.76  22634.20   5
   43.499   7803.63634   0.48314   0.14113    45.047   8917.82  18458.37   3320.16  23526.00   5
   43.999   7803.33884   0.01757   0.89648    45.047    420.02  23905.57  14482.56  16155.00   5
   44.500   7803.04430   0.52346   1.67490    45.047   9314.09  17793.64  20344.16  12146.53   6
   44.999   7802.74819   1.44520   1.52172    45.047  17527.82  12128.37  19249.36  12649.80   5
   45.499   7802.45529   1.71202   0.62618    45.047  18886.62  11031.77  11088.56  17708.40   5
   45.999   7802.15722   1.00496   0.06392    45.047  14108.42  14038.97   1514.96  23701.00   5
   46.500   7801.86218   0.15920   0.40799    45.047   3350.25  21044.14   7950.66  19487.53   6
   47.000   7801.56918   0.13520   1.31391    45.047   2870.42  21231.17  17378.96  13227.00   5
   47.500   7801.27484   0.95373   1.73887    45.047  13422.42  14073.77  19894.76  11441.20   5
   48.000   7800.97840   1.69512   1.15444    45.047  18212.62  10744.17  15975.96  13838.80   5
   48.500   7800.68720   1.49252   0.28103    45.047  17032.75  11412.14   5712.32  20326.86   6
   49.000   7800.39160   0.58657   0.10010    45.047   9552.42  16285.47   2252.99  22507.53   6
   49.500   7800.09936   0.02252   0.77612    45.047    499.82  22197.37  12344.96  15906.20   5
   50.000   7799.80422   0.41723   1.60958    45.047   7323.42  17552.77  18716.76  11628.40   5
