[CRDS Header]
FileType=Wavelength Monitor Calibration
Filename= /home/picarro/SI2000/InstrConfig/Integration/Laser_16260659_NH3.wlm
Date=20170413
Time=031744

[Parameters]
laser_current=36000.00
etalon1_offset=6512.48
reference1_offset=6518.71
etalon2_offset=6511.04
reference2_offset=6529.31

[Data column names]
0=Laser temperature
1=Wavenumber
2=Wavelength ratio 1
3=Wavelength ratio 2
4=Etalon temperature
5=Etalon 1 (offset removed)
6=Reference 1 (offset removed)
7=Etalon 2 (offset removed)
8=Reference 2 (offset removed)
9=Points averaged

[Data]
    5.001   6558.87914   0.12114   0.81480    45.034   2467.32  20366.69  10870.96  13341.89   5
    5.503   6558.63597   0.13915   1.53820    45.033   2799.52  20119.09  15513.16  10085.29   5
    6.002   6558.39748   0.76767   1.72482    45.033  11155.27  14531.54  16333.96   9469.94   4
    6.507   6558.14797   1.54299   1.21722    45.033  16693.72  10819.09  13679.96  11238.69   5
    7.006   6557.90814   1.80524   0.44497    45.033  17962.32   9950.09   6990.96  15711.29   5
    7.508   6557.66030   1.33140   0.03243    45.032  15439.52  11596.46    648.96  20008.19   6
    8.009   6557.41980   0.52889   0.29024    45.032   8543.72  16154.09   4992.96  17202.89   5
    8.510   6557.17396   0.05847   1.02914    45.032   1229.12  21020.89  12470.96  12117.89   5
    9.014   6556.92879   0.25586   1.66597    45.032   4773.32  18656.29  16041.76   9629.09   5
    9.512   6556.68229   0.98469   1.66030    45.032  12977.12  13179.09  15987.16   9629.09   5
   10.012   6556.43946   1.68173   1.01820    45.031  17294.72  10283.89  12304.56  12084.89   5
   10.517   6556.19462   1.74300   0.27672    45.031  17559.52  10074.29   4734.96  17111.49   5
   11.013   6555.94978   1.11842   0.03512    45.031  13921.72  12447.89    697.76  19867.69   5
   11.517   6555.70228   0.34250   0.46841    45.031   6042.69  17643.13   7271.13  15523.19   6
   12.016   6555.45811   0.04273   1.24557    45.031    899.52  21050.46  13789.13  11070.69   6
   12.517   6555.21594   0.41536   1.74675    45.031   7036.32  16940.69  16276.76   9318.29   5
   13.014   6554.97244   1.20291   1.54352    45.031  14413.69  11982.46  15302.13   9913.86   6
   13.516   6554.72760   1.77379   0.80571    45.031  17507.12   9869.89  10518.56  13055.09   5
   14.016   6554.48077   1.62985   0.14874    45.031  16775.19  10292.46   2707.13  18201.19   6
   14.514   6554.23927   0.90049   0.08725    45.031  12044.69  13375.96   1654.13  18959.53   6
   15.015   6553.99410   0.20162   0.66449    45.031   3791.92  18807.29   9226.96  13885.89   5
   15.515   6553.74626   0.07847   1.43765    45.030   1588.52  20244.79  14622.21  10170.94   4
   16.016   6553.50042   0.61351   1.76709    45.030   9257.52  15089.63  16084.96   9102.53   6
   16.515   6553.25926   1.41420   1.36975    45.030  15439.52  10917.49  14153.16  10332.69   5
   17.012   6553.01375   1.81312   0.58722    45.030  17366.02   9577.96   8319.63  14168.36   6
   17.514   6552.76892   1.46376   0.06100    45.030  15623.52  10678.09   1153.16  18903.29   4
   18.008   6552.52375   0.67508   0.19159    45.030   9792.02  14505.29   3353.21  17502.94   4
   18.513   6552.27691   0.09796   0.88617    45.030   1929.52  19697.49  10952.36  12359.29   5
   19.012   6552.03207   0.16759   1.59203    45.030   3159.72  18854.29  15094.16   9481.09   5
   19.511   6551.78657   0.83530   1.72027    45.030  11226.52  13440.09  15597.16   9066.69   5
   20.008   6551.54307   1.59000   1.16010    45.030  16116.72  10136.29  12710.56  10956.49   5
   20.509   6551.29523   1.78980   0.38345    45.030  16996.02   9496.04   5923.21  15447.19   4
   21.008   6551.04973   1.25438   0.02779    45.030  14185.12  11308.49    529.56  19054.29   5
   21.508   6550.80456   0.45318   0.35350    45.030   7201.72  15891.49   5551.36  15704.09   5
   22.007   6550.55805   0.04556   1.11855    45.030    912.92  20035.69  12342.36  11034.29   5
   22.507   6550.31021   0.31991   1.69927    45.030   5433.32  16984.09  15243.96   8970.89   5
   23.004   6550.06771   1.08625   1.60128    45.030  12944.72  11916.89  14756.56   9215.49   5
   23.505   6549.81921   1.73182   0.90909    45.030  16455.52   9501.89  10762.76  11839.09   5
   24.004   6549.57404   1.69573   0.20798    45.030  16229.02   9570.54   3467.21  16670.94   4
   24.504   6549.32820   1.00706   0.05664    45.030  12230.32  12144.69   1037.56  18318.49   5
   25.004   6549.07970   0.26264   0.56478    45.030   4513.35  17184.63   7753.13  13727.69   6
   25.504   6548.83253   0.05747   1.34553    45.030   1113.52  19375.69  13258.36   9853.69   5
   26.005   6548.58502   0.53303   1.74216    45.030   7876.32  14776.49  14938.16   8574.49   5
   26.503   6548.34052   1.34289   1.41409    45.030  14120.35  10514.96  13422.79   9492.19   6
   27.003   6548.09535   1.80891   0.64166    45.030  16252.69   8984.79   8264.96  12880.69   6
   27.504   6547.84384   1.51660   0.07882    45.030  14859.12   9797.69   1375.36  17449.09   5
   28.003   6547.60134   0.72751   0.16379    45.030   9593.52  13186.89   2711.96  16557.89   5
   28.504   6547.34950   0.11585   0.83147    45.030   2094.32  18078.29   9725.96  11697.29   5
   29.004   6547.10333   0.14851   1.55123    45.030   2620.72  17647.29  13707.76   8836.69   5
   29.504   6546.85382   0.80081   1.70872    45.030  10086.52  12595.49  14266.96   8349.49   5
   30.002   6546.60699   1.57346   1.16800    45.030  14771.02   9387.63  11695.13  10013.03   6
   30.504   6546.36048   1.79515   0.39027    45.030  15641.69   8713.29   5504.63  14104.69   6
   31.004   6546.11264   1.26617   0.02777    45.030  13080.52  10330.79    485.21  17473.94   4
   31.503   6545.86414   0.45586   0.35486    45.030   6625.02  14533.04   5102.96  14380.44   4
   32.003   6545.61463   0.04516   1.12416    45.030    828.02  18334.54  11313.46  10063.94   4
   32.501   6545.37046   0.32632   1.69878    45.030   5048.52  15471.29  13909.96   8188.19   4
   33.003   6545.11829   1.10742   1.58464    45.030  11966.85  10806.13  13403.46   8458.36   6
   33.502   6544.87012   1.74364   0.87680    45.030  15091.69   8655.29   9607.29  10957.36   6
   34.003   6544.62161   1.67582   0.18297    45.030  14756.12   8805.29   2826.96  15450.49   5
   34.500   6544.37678   0.96410   0.06972    45.030  10896.52  11302.29   1158.96  16623.49   5
   35.003   6544.12427   0.22964   0.62242    45.030   3681.23  16030.86   7625.67  12251.69   7
   35.503   6543.87510   0.06992   1.40811    45.030   1230.92  17605.49  12472.36   8857.49   5
   36.004   6543.62859   0.59300   1.75672    45.030   7805.85  13163.46  13803.79   7857.69   6
   36.502   6543.37975   1.40709   1.36513    45.030  13279.52   9437.63  12139.63   8892.69   6
   37.003   6543.13058   1.81391   0.56981    45.030  14950.77   8242.29   6990.21  12267.69   4
   37.502   6542.88041   1.44896   0.05388    45.030  13346.77   9211.29    877.71  16290.19   4
   38.004   6542.63090   0.63395   0.22230    45.030   8021.32  12652.89   3271.16  14715.09   5
   38.502   6542.37940   0.08184   0.94571    45.030   1389.27  16975.79   9728.71  10287.19   4
   39.002   6542.13256   0.20492   1.63733    45.030   3213.52  15682.29  13010.36   7946.09   5
   39.502   6541.88205   0.91991   1.69121    45.030  10115.92  10996.69  13123.96   7760.09   5
   40.004   6541.62988   1.65603   1.05944    45.030  13889.35   8387.13  10197.13   9625.03   6
   40.503   6541.38004   1.75688   0.29468    45.030  14197.02   8080.79   4020.71  13644.44   4
   41.002   6541.13253   1.13258   0.03438    45.030  11251.02   9933.96    547.63  15929.36   6
   41.501   6540.88069   0.34218   0.47625    45.030   4825.23  14101.72   5878.96  12344.55   7
   42.000   6540.63085   0.04417   1.27766    45.030    739.52  16741.89  11120.56   8703.89   5
   42.500   6540.37934   0.45183   1.75733    45.030   5960.72  13192.49  12943.96   7365.69   5
   43.002   6540.12951   1.27204   1.48900    45.030  11760.12   9245.09  11884.76   7981.69   5
   43.503   6539.87800   1.79912   0.71101    45.030  13912.85   7733.13   7638.96  10743.86   6
   44.002   6539.62883   1.56037   0.09822    45.030  12939.77   8292.79   1453.21  14795.94   4
   44.503   6539.38132   0.76836   0.14633    45.030   8549.12  11126.49   2102.56  14368.49   5
   45.002   6539.13015   0.12904   0.81371    45.030   1989.12  15415.09   8274.96  10169.49   5
   45.502   6538.87797   0.13898   1.55908    45.030   2122.02  15268.79  11890.21   7626.44   4
   46.004   6538.62780   0.79615   1.72841    45.030   8652.85  10862.29  12416.36   7183.69   5
   46.504   6538.37396   1.58143   1.16884    45.030  12745.52   8059.49  10112.16   8651.49   5
   47.004   6538.12145   1.79332   0.37612    45.030  13456.69   7503.79   4610.63  12258.36   6
   47.502   6537.86994   1.23941   0.02775    45.030  11118.77   8971.04    416.96  15026.69   4
   48.004   6537.61743   0.42095   0.39109    45.030   5351.35  12712.63   4733.29  12103.03   6
   48.505   6537.36526   0.04225   1.18057    45.030    665.52  15752.63   9976.96   8451.03   6
   49.005   6537.11442   0.37672   1.72337    45.030   4857.85  12895.13  12006.79   6967.03   6
   49.505   6536.86325   1.18544   1.53677    45.030  10634.92   8969.04  11295.96   7350.44   4
   50.005   6536.61174   1.77924   0.78399    45.030  12992.52   7302.29   7627.16   9728.69   5
