[CRDS Header]
FileType=Wavelength Monitor Calibration
Filename= /home/picarro/SI2000/InstrConfig/Integration/Laser_16236670_HF.wlm
Date=20170413
Time=030949

[Parameters]
laser_current=36000.00
etalon1_offset=6511.81
reference1_offset=6518.29
etalon2_offset=6510.92
reference2_offset=6529.20

[Data column names]
0=Laser temperature
1=Wavenumber
2=Wavelength ratio 1
3=Wavelength ratio 2
4=Etalon temperature
5=Etalon 1 (offset removed)
6=Reference 1 (offset removed)
7=Etalon 2 (offset removed)
8=Reference 2 (offset removed)
9=Points averaged

[Data]
    5.001   7830.70934   0.78604   0.07602    45.032  10554.02  13426.87   1308.58  17212.80   6
    5.504   7830.40846   0.07974   0.28204    45.032   1540.19  19316.04   4198.41  14886.30   6
    6.004   7830.11026   0.32476   1.18890    45.031   5269.69  16226.71  11202.41   9422.63   6
    6.504   7829.79804   1.25873   1.71648    45.031  12954.19  10307.91  13034.28   7593.60   4
    7.006   7829.50517   1.77190   1.21096    45.031  14865.76   8389.71  10645.94   8791.37   7
    7.504   7829.19329   1.22101   0.30449    45.031  11996.79   9825.51   3971.28  13043.40   5
    8.005   7828.89341   0.29197   0.06666    45.031   4290.79  14696.71    984.28  14767.00   5
    8.507   7828.58687   0.09702   0.77938    45.031   1572.79  16211.31   7603.88   9756.40   5
    9.007   7828.28833   0.83571   1.61465    45.030   9003.99  10774.11  11201.48   6937.40   5
    9.506   7827.98712   1.67509   1.54712    45.030  13059.85   7796.54  10879.25   7031.97   6
   10.008   7827.68124   1.56489   0.65848    45.030  12624.39   8067.31   6609.68  10038.00   5
   10.513   7827.37636   0.63585   0.03914    45.030   7468.35  11745.71    563.08  14386.80   6
   11.013   7827.07249   0.05162   0.39620    45.030    855.19  16565.91   4657.68  11756.40   5
   11.513   7826.76894   0.43700   1.33084    45.030   5859.99  13410.31  10492.48   7884.20   5
   12.015   7826.46240   1.38976   1.72172    45.030  12617.39   9078.91  12127.08   7043.60   5
   12.514   7826.16119   1.75608   1.08191    45.030  14442.19   8224.11   9800.28   9058.60   5
   13.013   7825.85831   1.06890   0.20284    45.030  11449.59  10711.91   2893.68  14267.40   5
   13.516   7825.55544   0.19720   0.12280    45.030   3300.62  16738.71   1884.08  15343.51   7
   14.014   7825.25189   0.15064   0.92216    45.030   2632.19  17474.91   9455.28  10253.80   5
   14.514   7824.95502   0.96618   1.68291    45.029  11220.59  11613.71  13071.48   7767.20   5
   15.015   7824.65281   1.72566   1.47430    45.029  15182.04   8797.85  12240.51   8302.80   7
   15.514   7824.35094   1.48392   0.55587    45.029  13972.19   9415.99   6682.51  12023.66   7
   16.014   7824.04739   0.53682   0.02872    45.029   7337.02  13668.37    461.41  16064.30   6
   16.513   7823.74419   0.04509   0.48293    45.030    800.44  17751.21   5777.08  11963.30   4
   17.015   7823.43964   0.52828   1.42099    45.030   6868.85  13003.04  11035.28   7766.00   5
   17.515   7823.13843   1.47018   1.70337    45.030  12520.44   8516.33  11649.45   6839.05   8
   18.014   7822.84356   1.73049   0.99022    45.030  13122.35   7583.04   8515.91   8600.30   6
   18.513   7822.54035   0.98457   0.15733    45.030   9497.69   9647.21   2008.41  12767.80   6
   19.015   7822.23314   0.15419   0.16332    45.030   2212.79  14351.71   2034.68  12458.20   5
   19.511   7821.93660   0.18961   0.99772    45.030   2620.79  13822.51   8002.68   8021.20   5
   20.013   7821.63239   1.04369   1.70174    45.030   9370.02   8978.04  10455.41   6143.97   6
   20.512   7821.33218   1.74602   1.41335    45.030  12185.52   6979.04   9544.41   6753.13   6
   21.011   7821.03264   1.42279   0.48459    45.030  11104.69   7804.87   4895.91  10103.47   6
   21.509   7820.73143   0.47945   0.02896    45.030   5642.94  11769.71    388.83  13427.30   4
   22.009   7820.42956   0.04678   0.53766    45.030    723.04  15457.85   5436.79  10112.37   7
   22.508   7820.13369   0.57802   1.45353    45.030   6718.59  11623.51  10184.88   7007.00   5
   23.007   7819.82848   1.50632   1.67403    45.030  12243.69   8128.21  11118.58   6641.80   4
   23.506   7819.53094   1.71628   0.93872    45.030  13295.19   7746.51   8362.68   8908.80   5
   24.007   7819.23106   0.93938   0.13328    45.030   9824.19  10458.31   1837.68  13788.60   5
   24.506   7818.93052   0.14003   0.18012    45.030   2234.59  15958.31   2448.08  13592.00   5
   25.006   7818.62831   0.20478   1.01863    45.030   3160.76  15435.42   9102.22   8935.94   7
   25.504   7818.33311   1.07148   1.69405    45.030  10795.59  10075.51  11784.48   6956.40   5
   26.004   7818.02623   1.75268   1.37267    45.030  13723.44   7829.96  10531.83   7672.55   4
   26.504   7817.72469   1.39560   0.45166    45.030  12067.69   8646.96   5085.58  11259.80   4
   27.004   7817.42681   0.45425   0.03071    45.030   5739.02  12634.54    436.25  14206.80   6
   27.504   7817.12761   0.04858   0.56200    45.030    759.59  15635.51   5678.88  10105.00   5
   28.005   7816.82773   0.59033   1.45978    45.030   6562.52  11117.21   9799.41   6712.97   6
   28.505   7816.52853   1.51655   1.66394    45.031  11219.59   7398.11  10105.08   6073.00   5
   29.004   7816.22865   1.70858   0.91804    45.031  11536.19   6751.91   7164.48   7804.20   5
   29.504   7815.92711   0.92667   0.12655    45.031   8133.19   8776.91   1460.88  11543.80   5
   30.004   7815.63257   0.13567   0.18848    45.031   1758.79  12964.31   2063.68  10949.40   5
   30.504   7815.32870   0.21381   1.04092    45.031   2614.47  12228.28   7351.22   7062.37   7
   31.004   7815.03516   1.08069   1.70460    45.031   8625.69   7981.71   9418.83   5525.55   4
   31.504   7814.73228   1.75395   1.37689    45.031  11075.35   6314.54   8529.25   6194.63   6
   32.004   7814.43408   1.39905   0.45540    45.031  10027.39   7167.31   4250.28   9333.20   5
   32.504   7814.13454   0.46214   0.02988    45.031   5020.02  10863.04    366.58  12268.47   6
   33.003   7813.83366   0.04745   0.55611    45.031    672.35  14161.04   5115.91   9199.80   5
   33.503   7813.53812   0.57920   1.46590    45.031   6177.39  10650.71   9406.08   6416.60   4
   34.003   7813.23758   1.50563   1.68309    45.031  11205.69   7442.54  10235.91   6081.63   6
   34.502   7812.94038   1.71775   0.94548    45.031  12125.39   7058.91   7678.08   8121.00   5
   35.003   7812.64050   0.94625   0.13483    45.031   8945.99   9454.31   1684.08  12490.80   5
   35.502   7812.34530   0.14478   0.17804    45.031   2074.44  14328.71   2183.83  12266.30   4
   36.002   7812.04509   0.19741   1.02304    45.031   2743.79  13849.91   8193.88   8009.40   4
   36.502   7811.74722   1.04630   1.70899    45.031   9445.79   9027.91  10564.28   6181.60   5
   37.002   7811.44935   1.74374   1.41787    45.031  12064.39   6918.71   9488.08   6691.80   5
   37.502   7811.15347   1.43794   0.49852    45.031  10734.69   7465.37   4810.58   9649.97   6
   38.001   7810.85293   0.50562   0.02803    45.031   5423.69  10726.96    347.58  12400.80   4
   38.502   7810.55773   0.04530   0.51169    45.031    617.52  13632.54   4623.91   9036.80   5
   39.003   7810.26086   0.53103   1.43073    45.031   5283.44   9949.46   8476.08   5924.30   4
   39.502   7809.95898   1.46048   1.70432    45.031   9576.79   6557.31   8936.08   5243.20   5
   40.001   7809.66945   1.73692   1.00907    45.031  10127.79   5830.91   6630.88   6571.40   5
   40.502   7809.36691   1.01483   0.16980    45.031   7499.35   7389.87   1666.41   9814.47   6
   41.002   7809.07137   0.18220   0.13915    45.031   2010.47  11034.99   1375.79   9887.51   7
   41.502   7808.77716   0.15466   0.93651    45.031   1724.52  11151.04   6080.58   6492.97   6
   42.001   7808.47996   0.95338   1.67567    45.031   7075.19   7421.31   8266.08   4933.00   5
   42.502   7808.18342   1.71486   1.48038    45.031   9707.02   5660.54   7835.08   5294.40   5
   43.003   7807.88388   1.50700   0.57523    45.031   9232.19   6126.21   4478.58   7785.80   6
   43.502   7807.59101   0.58929   0.03262    45.031   5324.85   9036.37    354.41  10864.47   6
   44.003   7807.29114   0.04850   0.43005    45.031    609.35  12564.04   3732.91   8709.97   5
   44.503   7806.99627   0.44455   1.33896    45.031   4496.69  10115.21   7939.91   5927.80   5
   45.004   7806.69839   1.37333   1.71153    45.031   9454.02   6884.04   9076.75   5303.30   6
   45.503   7806.40386   1.76095   1.10402    45.031  10790.59   6127.71   7365.28   6671.40   5
   46.004   7806.11365   1.13846   0.23897    45.031   8721.52   7660.87   2447.58  10242.63   6
   46.504   7805.81778   0.25701   0.08716    45.031   2994.59  11652.11    985.68  11308.60   5
   47.005   7805.52291   0.10198   0.80356    45.031   1299.35  12741.87   6096.58   7587.13   6
   47.505   7805.22471   0.82340   1.60699    45.031   7035.35   8544.37   8787.75   5468.47   6
   48.005   7804.92950   1.65528   1.55356    45.031  10107.19   6106.04   8452.58   5440.80   6
   48.505   7804.63830   1.60381   0.70453    45.031   9683.99   6038.11   5229.68   7423.00   5
   49.005   7804.33909   0.72773   0.05607    45.031   5980.19   8217.71    581.68  10374.60   5
   49.506   7804.04356   0.07418   0.30881    45.031    846.19  11407.71   2656.25   8601.80   6
   50.005   7803.75169   0.31697   1.19294    45.031   3022.19   9534.71   6555.91   5495.63   6
