[CRDS Header]
FileType=Wavelength Monitor Calibration
Filename=C:\Picarro\G2000\InstrConfig\Integration\Laser_16049458_HF.wlm
Date=20160811
Time=114824

[Parameters]
laser_current=36000.00
etalon1_offset=6547.56
reference1_offset=6548.81
etalon2_offset=6537.56
reference2_offset=6562.36

[Data column names]
0=Laser temperature
1=Wavenumber
2=Wavelength ratio 1
3=Wavelength ratio 2
4=Etalon temperature
5=Etalon 1 (offset removed)
6=Reference 1 (offset removed)
7=Etalon 2 (offset removed)
8=Reference 2 (offset removed)
9=Points averaged

[Data]
    4.991   7827.49625   0.79192   0.05085    44.854   7275.24   9186.79    613.64  12068.64   5
    5.499   7827.23647   0.07365   0.66490    44.854   1017.11  13810.35   5826.61   8763.14   6
    6.000   7826.94270   0.26133   1.52423    44.854   3259.04  12471.39   9635.64   6321.64   5
    6.503   7826.64503   1.13538   1.58496    44.855   9412.24   8289.99   9868.04   6226.04   5
    7.004   7826.33254   1.67817   0.77627    44.855  11489.61   6846.52   6570.44   8464.14   6
    7.504   7826.02103   1.23479   0.08332    44.855   9786.44   7925.59   1015.04  12182.44   5
    8.004   7825.76075   0.34378   0.26325    44.855   4035.04  11737.59   2847.24  10815.84   5
    8.504   7825.45717   0.04311   1.13071    44.855    597.64  13863.59   7976.44   7054.44   5
    9.003   7825.15559   0.66046   1.68613    44.855   6350.77   9615.85   9608.11   5698.31   6
    9.503   7824.85749   1.51146   1.23833    44.855  10161.24   6722.79   8074.64   6520.64   5
   10.005   7824.52276   1.56972   0.34156    44.855  10163.44   6474.69   3276.11   9591.81   6
   10.505   7824.27375   0.76378   0.05622    44.855   6647.24   8703.19    632.84  11255.84   5
   11.011   7824.01821   0.06765   0.67952    44.855    850.87  12578.47   5361.30   7890.07   7
   11.524   7823.70616   0.28773   1.53881    44.855   3137.24  10903.79   8584.44   5578.64   5
   12.043   7823.39945   1.19924   1.54040    44.855   8538.84   7120.39   8560.04   5557.04   5
   12.551   7823.09017   1.67729   0.68302    44.854  10141.77   6046.52   5327.94   7802.14   6
   13.004   7822.70840   1.23577   0.08386    44.854   8760.61   7089.19    914.94  10910.97   6
   13.539   7822.47928   0.28068   0.32241    44.854   3121.11  11128.52   3083.11   9568.97   6
   14.031   7822.20215   0.06000   1.19521    44.854    776.04  12936.99   7764.44   6496.84   5
   14.526   7821.89988   0.71407   1.69001    44.854   6536.61   9154.85   9392.44   5557.64   6
   15.017   7821.57492   1.53130   1.21343    44.854  10306.61   6730.69   8047.11   6631.97   6
   15.514   7821.27354   1.56143   0.32886    44.854  10500.84   6725.19   3288.04   9999.04   5
   16.013   7821.03037   0.75369   0.05842    44.854   6962.44   9238.02    692.61  11854.81   6
   16.510   7820.71139   0.06872   0.67822    44.854    921.24  13406.99   5706.04   8413.44   5
   17.010   7820.34503   0.26848   1.52798    44.854   3161.44  11775.52   9128.61   5974.31   6
   17.508   7820.06130   1.13946   1.58224    44.854   8772.61   7699.02   9151.11   5783.64   6
   18.006   7819.77401   1.67852   0.77181    44.854  10490.04   6249.59   5965.44   7729.24   5
   18.506   7819.50782   1.22589   0.08054    44.854   8745.44   7133.99    880.24  10930.04   5
   19.006   7819.16332   0.33173   0.27300    44.854   3471.44  10464.85   2594.94   9505.64   6
   19.504   7818.87251   0.04480   1.13795    44.854    546.64  12201.79   7040.24   6186.84   5
   20.007   7818.60660   0.66915   1.68767    44.854   5621.73   8401.33   8417.01   4987.35   7
   20.505   7818.32644   1.51123   1.24094    44.854   8901.15   5890.04   7069.30   5696.78   7
   21.003   7818.00548   1.57369   0.34995    44.854   8940.44   5681.19   2928.94   8369.81   6
   21.505   7817.70674   0.77043   0.05480    44.854   5917.27   7680.52    545.11   9947.97   6
   22.003   7817.38822   0.07260   0.66591    44.854    814.44  11217.99   4720.84   7089.44   5
   22.504   7817.10179   0.26280   1.52072    44.854   2629.64  10006.39   7707.04   5068.04   5
   23.004   7816.80518   1.13479   1.58225    44.854   7607.15   6703.62   7953.15   5026.50   7
   23.504   7816.48793   1.67626   0.77663    44.854   9477.44   5653.94   5416.56   6974.52   8
   24.002   7816.19850   1.23576   0.08464    44.854   8334.64   6744.59    875.84  10348.44   5
   24.502   7815.88678   0.34251   0.26320    44.854   3557.94  10388.19   2514.11   9552.14   6
   25.001   7815.58948   0.04284   1.12944    44.853    549.64  12831.59   7368.24   6523.84   5
   25.500   7815.33824   0.65866   1.69077    44.853   6118.84   9289.99   9274.64   5485.44   5
   26.000   7815.00370   1.50906   1.25067    44.853  10194.24   6755.39   8138.64   6507.44   5
   26.500   7814.70353   1.57665   0.35332    44.854  10571.44   6704.99   3485.84   9866.04   5
   27.000   7814.40686   0.77864   0.05322    44.854   7146.44   9178.19    634.94  11929.81   6
   27.499   7814.11886   0.07580   0.65735    44.853   1016.24  13406.59   5602.04   8522.24   5
   28.000   7813.81859   0.25434   1.51559    44.853   3011.61  11841.35   9054.11   5973.97   6
   28.500   7813.51488   1.12242   1.59153    44.853   8612.27   7673.02   9076.44   5702.97   6
   29.000   7813.19986   1.67683   0.79019    44.853  10250.44   6112.99   5913.64   7483.84   5
   29.501   7812.90972   1.24452   0.08748    44.853   8526.64   6851.39    919.84  10515.04   5
   30.001   7812.61979   0.34872   0.25745    44.853   3457.01   9913.62   2359.44   9164.93   7
   30.500   7812.33226   0.04135   1.11976    44.853    478.04  11561.19   6586.24   5881.84   5
   31.000   7812.02898   0.64916   1.68493    44.853   5162.04   7951.99   7874.44   4673.44   5
   31.500   7811.70502   1.49981   1.25799    44.853   8246.24   5498.19   6615.04   5258.44   5
   32.000   7811.41339   1.58121   0.36225    44.853   8279.77   5236.35   2780.61   7675.97   6
   32.500   7811.12159   0.79256   0.05055    44.853   5525.04   6971.19    461.84   9135.64   5
   33.000   7810.81057   0.07973   0.64409    44.853    811.61  10180.02   4202.11   6524.14   6
   33.500   7810.51773   0.24452   1.50201    44.853   2247.44   9191.52   6954.27   4629.97   6
   33.999   7810.21809   1.10659   1.59695    44.853   6788.64   6134.79   7222.44   4522.64   5
   34.500   7809.91812   1.67427   0.80792    44.853   8527.94   5093.52   4995.44   6183.14   6
   34.999   7809.62632   1.26193   0.09467    44.853   7547.84   5981.19    870.44   9194.64   5
   35.500   7809.34079   0.36618   0.24304    44.853   3354.77   9161.69   2095.94   8623.97   6
   36.000   7809.03875   0.03763   1.10025    44.853    432.44  11491.69   6469.44   5879.97   6
   36.499   7808.74998   0.62792   1.68807    44.853   5299.44   8439.79   8284.44   4907.64   5
   36.999   7808.43323   1.48680   1.28379    44.853   9091.44   6114.79   7402.64   5766.24   5
   37.500   7808.14126   1.59564   0.38449    44.853   9548.81   5984.31   3343.81   8697.01   8
   37.999   7807.83925   0.82174   0.04587    44.853   6647.64   8089.79    493.44  10758.04   5
   38.499   7807.56229   0.09146   0.61435    44.852   1089.24  11910.19   4791.44   7799.24   5
   38.999   7807.26015   0.22427   1.48365    44.852   2428.04  10826.39   8038.44   5418.04   5
   39.499   7806.94790   1.07554   1.61383    44.852   7590.04   7056.99   8241.24   5106.64   5
   39.999   7806.64852   1.67116   0.84412    44.852   9339.44   5588.59   5626.24   6665.24   5
   40.499   7806.35626   1.29309   0.10815    44.852   8033.11   6212.35   1034.94   9569.47   6
   40.999   7806.05628   0.39752   0.21872    44.852   3576.11   8996.19   1911.27   8738.64   6
   41.499   7805.75761   0.03135   1.05571    44.852    342.84  10934.39   5981.04   5665.44   5
   41.999   7805.47872   0.58698   1.67594    44.852   4538.94   7732.85   7408.44   4420.47   6
   42.499   7805.16553   1.45803   1.31532    44.852   7697.44   5279.35   6407.77   4871.64   6
   43.000   7804.88877   1.61215   0.41881    44.852   7930.44   4919.19   2956.61   7059.64   6
   43.499   7804.58780   0.86823   0.04039    44.852   5568.24   6413.39    353.04   8741.24   5
   43.999   7804.30257   0.11176   0.56645    44.852   1054.11   9431.69   3630.77   6409.81   6
   44.499   7803.98772   0.19187   1.44441    44.852   1721.44   8971.79   6446.44   4463.04   5
   44.999   7803.67890   1.02252   1.63521    44.851   6096.84   5962.59   6859.44   4194.84   5
   45.500   7803.38844   1.66159   0.90141    44.851   7890.94   4749.02   4967.27   5510.64   6
   46.001   7803.09807   1.34035   0.13258    44.851   7150.44   5334.76   1090.15   8222.50   7
   46.499   7802.78865   0.44708   0.18532    44.851   3553.24   7947.79   1496.84   8077.24   5
   47.000   7802.49652   0.02673   1.00413    44.851    276.11  10330.19   5469.61   5447.14   6
   47.499   7802.19835   0.53015   1.66993    44.851   4134.24   7798.39   7249.24   4341.04   5
   48.000   7801.90061   1.41072   1.37933    44.851   7637.04   5413.59   6619.44   4799.04   5
   48.500   7801.61147   1.64021   0.48680    44.851   8212.84   5007.19   3398.44   6981.24   5
   49.001   7801.32748   0.94278   0.03649    44.851   6017.94   6383.19    327.27   8968.14   6
   49.501   7801.02740   0.14709   0.49928    44.851   1385.61   9420.19   3373.11   6755.97   6
   49.998   7800.73987   0.14783   1.38711    44.850   1364.04   9227.19   6308.04   4547.64   5
