[CRDS Header]
FileType=Wavelength Monitor Calibration
Filename=C:\Picarro\G2000\InstrConfig\Integration\Laser_15168971_NH3.wlm
Date=20160811
Time=115859

[Parameters]
laser_current=36000.00
etalon1_offset=6546.95
reference1_offset=6548.72
etalon2_offset=6537.37
reference2_offset=6562.24

[Data column names]
0=Laser temperature
1=Wavenumber
2=Wavelength ratio 1
3=Wavelength ratio 2
4=Etalon temperature
5=Etalon 1 (offset removed)
6=Reference 1 (offset removed)
7=Etalon 2 (offset removed)
8=Reference 2 (offset removed)
9=Points averaged

[Data]
    5.000   6557.51216   0.65831   0.04705    44.850   9715.45  14758.28    930.03  19768.36   5
    5.503   6557.28301   0.07989   0.50606    44.850   1612.91  20188.71   7716.34  15247.90   7
    6.005   6557.06969   0.16253   1.32400    44.850   3114.05  19160.28  14289.03  10792.36   5
    6.505   6556.81048   0.84650   1.84178    44.850  11423.85  13495.48  16751.63   9095.36   5
    7.005   6556.57795   1.60315   1.61957    44.850  16307.05  10171.88  15755.43   9728.16   5
    7.505   6556.33408   1.81315   0.84621    44.850  17267.85   9523.68  10932.83  12919.76   5
    8.005   6556.10426   1.29482   0.16278    44.850  14675.25  11333.88   2971.63  18255.36   5
    8.507   6555.86015   0.48279   0.09547    44.850   7777.39  16109.45   1836.29  19233.76   6
    9.010   6555.64414   0.03448   0.68673    44.850    725.85  21049.88   9716.23  14148.56   5
    9.521   6555.40601   0.29355   1.51069    44.851   5305.45  18073.48  15572.43  10308.16   5
   10.006   6555.08532   1.04038   1.85915    44.851  13276.55  12761.28  17227.96   9266.59   6
   10.552   6554.89192   1.75506   1.39669    44.851  17572.05  10012.28  15108.43  10817.56   5
   11.004   6554.59431   1.75016   0.65171    44.851  17533.89  10018.45   9466.46  14525.59   6
   11.547   6554.40505   1.02664   0.06104    44.851  13280.45  12937.28   1225.23  20074.16   5
   12.036   6554.18009   0.28245   0.21622    44.851   5207.05  18438.48   3976.63  18393.96   5
   12.529   6553.91618   0.03263   0.92285    44.851    703.39  21560.11  12044.46  13051.76   6
   13.019   6553.69486   0.45387   1.66009    44.851   7675.45  16911.68  16626.63  10015.56   5
   13.517   6553.42150   1.26099   1.82597    44.852  15038.85  11926.28  17363.03   9508.96   5
   14.015   6553.20335   1.80427   1.26207    44.852  17929.22   9937.11  14416.96  11423.26   6
   14.514   6552.94337   1.62761   0.44508    44.852  17059.72  10481.45   7190.63  16155.76   6
   15.011   6552.71148   0.87984   0.03843    44.852  12112.05  13766.28    784.63  20417.76   6
   15.511   6552.43288   0.17811   0.32668    44.852   3475.55  19513.11   5620.96  17206.43   6
   16.011   6552.20393   0.07241   1.11200    44.852   1501.05  20730.28  13271.43  11934.76   5
   16.508   6551.96126   0.63489   1.77033    44.852   9573.45  15079.08  16699.43   9432.96   5
   17.009   6551.74384   1.44730   1.74436    44.852  15629.25  10798.88  16433.23   9420.76   5
   17.509   6551.46358   1.83412   1.04906    44.852  17356.45   9463.08  12468.83  11885.76   5
   18.008   6551.24366   1.46542   0.27744    44.852  15507.45  10582.28   4692.23  16912.76   5
   18.508   6550.98632   0.65671   0.04738    44.852   9510.85  14482.68    917.63  19368.56   5
   19.008   6550.75549   0.07782   0.51092    44.853   1530.85  19671.88   7557.43  14791.76   5
   19.507   6550.49544   0.17008   1.33601    44.853   3128.45  18393.88  13834.83  10355.36   5
   20.006   6550.23420   0.86837   1.84508    44.853  11061.85  12738.68  15950.63   8644.96   5
   20.506   6550.00230   1.62494   1.59854    44.853  15433.05   9497.61  14701.63   9196.93   6
   21.005   6549.75820   1.80508   0.80657    44.853  15986.25   8856.28   9819.43  12174.36   5
   21.506   6549.50392   1.25185   0.14007    44.853  13166.05  10517.28   2366.23  16892.96   5
   22.005   6549.27300   0.43654   0.11578    44.853   6469.85  14820.68   1974.03  17050.56   5
   22.505   6549.01045   0.02837   0.74301    44.853    529.55  18663.78   9039.96  12166.76   6
   23.004   6548.80294   0.33049   1.54958    44.853   5095.25  15417.48  13711.83   8848.76   5
   23.504   6548.52842   1.12239   1.85373    44.853  11931.25  10630.28  14776.03   7970.96   5
   24.004   6548.27361   1.76170   1.38713    44.853  14911.55   8464.28  12735.13   9180.93   6
   24.503   6548.06616   1.70113   0.55469    44.854  14583.25   8572.68   7101.83  12803.36   5
   25.003   6547.79941   0.99245   0.05382    44.854  10892.22  10975.11    907.63  16865.26   6
   25.503   6547.55047   0.23907   0.25533    44.854   3763.72  15743.45   3820.79  14964.43   6
   26.003   6547.32869   0.04736   1.01258    44.854    840.72  17750.45  10574.63  10443.26   6
   26.502   6547.05370   0.55675   1.72779    44.854   7415.25  13318.88  14030.63   8120.56   5
   27.002   6546.81226   1.38141   1.77968    44.854  13094.45   9479.08  14222.03   7991.36   5
   27.502   6546.59014   1.82996   1.12017    44.854  15030.89   8213.78  11222.29  10018.43   6
   28.002   6546.31482   1.51553   0.32240    44.854  13801.91   9106.99   4652.77  14431.90   7
   28.501   6546.07318   0.70867   0.04021    44.854   8858.65  12500.48    691.03  17185.56   5
   29.001   6545.84986   0.09319   0.47164    44.854   1629.05  17481.68   6379.23  13525.56   5
   29.501   6545.59976   0.15151   1.30185    44.854   2573.65  16986.48  12444.03   9558.76   5
   30.001   6545.33227   0.84136   1.83966    44.854  10079.45  11980.08  14792.63   8040.96   5
   30.501   6545.09784   1.61349   1.61075    44.854  14543.45   9013.68  13943.23   8656.36   5
   31.001   6544.85841   1.80590   0.81459    44.854  15367.25   8509.48   9489.03  11648.96   5
   31.501   6544.59173   1.25182   0.14128    44.855  12857.05  10270.68   2326.43  16466.36   5
   32.002   6544.32621   0.42885   0.11905    44.855   6320.25  14737.68   2002.63  16822.16   5
   32.502   6544.09141   0.02721   0.76154    44.855    509.72  18729.78   9193.79  12072.59   6
   33.002   6543.84031   0.35187   1.57214    44.855   5423.72  15414.11  13944.79   8869.93   6
   33.502   6543.59660   1.15919   1.85108    44.855  12350.89  10654.78  14980.96   8093.09   6
   34.001   6543.35000   1.77825   1.34717    44.855  15285.65   8595.88  12776.23   9483.76   5
   34.501   6543.08855   1.66789   0.50481    44.855  14778.65   8860.68   6757.43  13386.16   5
   35.001   6542.85499   0.92606   0.04351    44.855  10669.55  11521.45    752.79  17299.93   6
   35.501   6542.59168   0.19548   0.30358    44.855   3214.65  16445.08   4488.23  14784.36   5
   36.001   6542.35641   0.06793   1.09660    44.855   1202.39  17701.45  11165.13  10181.59   6
   36.501   6542.09750   0.63922   1.77415    44.855   8182.45  12800.68  14168.63   7986.16   5
   37.001   6541.84623   1.46491   1.73699    44.855  13328.45   9098.48  13855.23   7976.56   5
   37.501   6541.61316   1.83260   1.01348    44.855  14651.45   7994.88  10279.83  10143.16   5
   38.002   6541.34128   1.41857   0.24270    44.855  12812.34   9031.85   3504.20  14438.62   7
   38.501   6541.10184   0.58921   0.06066    44.855   7367.65  12504.28    970.43  15996.76   5
   39.001   6540.86315   0.05306   0.58981    44.855    886.25  16703.28   6982.43  11838.56   5
   39.501   6540.60116   0.23150   1.43265    44.855   3430.25  14817.28  11936.23   8331.56   5
   40.002   6540.36674   0.99421   1.86154    44.855  10072.55  10131.28  13370.96   7182.76   6
   40.501   6540.09832   1.70779   1.48998    44.855  13272.89   7771.95  11888.96   7979.26   6
   41.001   6539.85381   1.74857   0.64970    44.854  13268.25   7588.08   7116.23  10953.16   5
   41.501   6539.62089   1.07704   0.07460    44.854  10205.85   9475.88   1104.03  14800.16   5
   42.001   6539.35177   0.28625   0.21150    44.855   3895.05  13607.28   2871.20  13575.76   7
   42.502   6539.10420   0.03742   0.95667    44.855    590.45  15777.08   8992.23   9399.56   5
   43.001   6538.85706   0.51838   1.70565    44.854   6176.72  11915.61  12202.63   7154.26   6
   43.501   6538.61699   1.35647   1.79423    44.854  11332.34   8354.28  12434.63   6930.33   7
   44.001   6538.36418   1.82813   1.13972    44.854  13058.45   7143.08   9818.83   8615.16   5
   44.501   6538.09727   1.51589   0.32381    44.854  11930.72   7870.45   4022.29  12421.93   6
   45.000   6537.86150   0.69545   0.04167    44.854   7526.45  10822.48    613.83  14731.56   5
   45.501   6537.61643   0.08318   0.49535    44.854   1254.65  15083.48   5660.83  11427.96   5
   46.001   6537.34735   0.17351   1.34120    44.854   2478.65  14285.28  10747.23   8013.16   5
   46.501   6537.13583   0.89852   1.85060    44.854   8916.05   9923.11  12556.79   6785.26   6
   47.001   6536.85057   1.65820   1.56180    44.854  12448.55   7507.28  11571.79   7409.26   6
   47.501   6536.63399   1.78170   0.73295    44.854  12854.89   7214.95   7429.46  10136.43   6
   48.001   6536.36577   1.15884   0.10128    44.854  10323.25   8908.28   1430.03  14119.96   5
   48.501   6536.10332   0.34194   0.16926    44.854   4404.05  12879.88   2301.23  13596.16   5
   49.002   6535.87286   0.02919   0.88507    44.854    454.72  15575.78   8420.63   9514.09   6
   49.502   6535.61705   0.46492   1.66663    44.854   5608.25  12062.88  11895.63   7137.56   5
   50.002   6535.37348   1.30694   1.81380    44.854  10947.05   8376.08  12307.63   6785.56   5
