[CRDS Header]
FileType=Wavelength Monitor Calibration
Filename=C:\Picarro\G2000\InstrConfig\Integration\Laser_13148565_HF.wlm
Date=20150916
Time=102407

[Parameters]
laser_current=36000.00
etalon1_offset=7064.80
reference1_offset=7268.50
etalon2_offset=7186.05
reference2_offset=7448.53

[Data column names]
0=Laser temperature
1=Wavenumber
2=Wavelength ratio 1
3=Wavelength ratio 2
4=Etalon temperature
5=Etalon 1 (offset removed)
6=Reference 1 (offset removed)
7=Etalon 2 (offset removed)
8=Reference 2 (offset removed)
9=Points averaged

[Data]
    5.001   7828.09299   1.75876 -17.23877    45.048   1340.00    761.90    542.35    -31.53   5
    5.505   7827.84062   2.76749   0.15401    45.048   1739.36    628.50     63.61    413.14   6
    6.007   7827.52330   1.42116  -0.43821    45.049   1550.70   1091.17   -420.89    960.47   6
    6.504   7827.25141   0.16608   0.39464    45.050    397.60   2394.30    293.15    742.87   5
    7.005   7826.96998  -0.01685   2.91690    45.051    -54.40   3228.10   1202.55    412.27   5
    7.504   7826.65190   0.84329   3.57367    45.052   1853.40   2197.90   1509.75    422.47   5
    8.005   7826.32851   2.03600   1.18245    45.054   2989.86   1468.50   1012.28    856.14   6
    8.504   7826.05945   1.87101  -0.08829    45.055   2790.60   1491.50   -144.65   1638.27   5
    9.005   7825.73663   0.60323  -0.03431    45.056   1363.53   2260.50    -49.22   1433.97   6
    9.505   7825.41704  -0.07441   1.58960    45.056   -227.60   3058.70    896.95    564.27   5
   10.005   7825.16297   0.34879   6.53738    45.057    685.20   1964.50   1101.35    168.47   5
   10.507   7824.86092   1.87880   4.36305    45.057   1578.20    840.00    720.28    165.14   6
   11.006   7824.59060   3.07694  -0.12948    45.057   1421.03    461.83    -55.39    427.47   6
   11.512   7824.25067   1.32818  -0.94218    45.057    735.40    553.70   -427.05    453.27   5
   12.020   7823.99262  -0.18202  -1.61373    45.058   -175.60    964.70     31.75    -19.73   5
   12.507   7823.56686  -0.15714  -1.32535    45.058   -141.00    897.30    323.55   -244.13   5
   13.006   7823.26028   1.45856  -2.21068    45.059    680.40    466.50    419.35   -189.73   5
   13.542   7823.07042   3.30147   0.68969    45.059   1342.00    406.50    186.15    273.47   5
   14.043   7822.74716   1.82387  -0.34325    45.060   1552.20    851.67   -376.22   1095.97   6
   14.537   7822.41260   0.36905   0.14250    45.061    765.77   2078.36    168.38   1183.19   7
   15.031   7822.11886  -0.07256   1.87107    45.061   -235.80   3249.79   1316.09    703.47   7
   15.520   7821.86415   0.53455   3.28469    45.061   1244.20   2328.17   1744.61    531.14   6
   16.017   7821.55354   1.83771   1.69795    45.061   2506.40   1363.90   1361.75    802.07   5
   16.515   7821.24846   2.17893   0.11638    45.061   2520.80   1156.90    179.15   1539.67   5
   17.015   7820.96596   0.94827  -0.15923    45.061   1497.20   1578.93   -264.34   1660.05   7
   17.513   7820.62706  -0.03389   0.94431    45.060    -78.47   2314.67    681.11    721.31   6
   18.011   7820.32258   0.09032   5.90784    45.060    153.40   1698.50   1022.35    173.07   5
   18.510   7820.02288   1.57383  10.16487    45.059   1031.36    655.33    763.61     75.14   6
   19.009   7819.75739   3.94433   0.48032    45.058   1141.86    289.50    152.95    318.47   6
   19.510   7819.40031   2.15265  -0.59802    45.058    891.40    414.10   -418.65    700.07   5
   20.007   7819.15047   0.21117   0.08724    45.058    233.00   1103.50     48.55    556.27   5
   20.507   7818.82502  -0.13556   2.93768    45.058   -259.40   1913.70    917.95    312.47   5
   21.007   7818.49162   0.64378   3.90785    45.058    988.53   1535.50   1450.28    371.14   6
   21.505   7818.23664   2.05850   1.50415    45.058   2118.80   1029.30   1223.55    813.47   5
   22.005   7817.95094   2.17850   0.04419    45.058   2221.40   1019.70     76.35   1728.07   5
   22.505   7817.61334   0.81414  -0.06410    45.059   1357.53   1667.50   -123.89   1932.64   6
   23.003   7817.34419  -0.04314   1.07171    45.059   -118.80   2753.50   1152.35   1075.27   5
   23.506   7816.99098   0.20069   2.88775    45.059    466.20   2323.00   1821.61    630.81   6
   24.003   7816.73550   1.45624   2.31417    45.058   1846.70   1268.17   1678.45    725.31   6
   24.504   7816.41381   2.41998   0.49368    45.058   2200.00    909.10    685.35   1388.27   5
   25.004   7816.08442   1.47184  -0.16273    45.058   1691.86   1149.50   -332.89   2045.64   6
   25.503   7815.81777   0.18928   0.40577    45.057    381.36   2014.83    558.45   1376.31   6
   26.003   7815.50945  -0.06405   2.20219    45.057   -154.80   2417.00   1559.45    708.14   6
   26.502   7815.19047   0.78015   2.93633    45.056   1208.20   1548.70   1856.55    632.27   5
   27.002   7814.91775   2.13473   1.24050    45.056   2150.03   1007.17   1390.11   1120.64   6
   27.502   7814.59802   2.09899   0.03339    45.055   2145.80   1022.30     70.55   2113.07   5
   28.001   7814.29401   0.72698  -0.00939    45.055   1140.40   1568.70    -19.25   2048.67   5
   28.503   7813.98250  -0.09057   1.20820    45.055   -203.30   2244.67   1162.45    962.14   6
   29.001   7813.69894   0.23981   3.40258    45.055    366.20   1527.10   1522.55    447.47   5
   29.501   7813.38442   1.85046   2.54906    45.055   1214.20    656.17   1190.28    466.97   6
   30.000   7813.10639   3.26512   0.31585    45.055   1304.40    399.50    298.35    944.67   5
   30.501   7812.80091   1.53207  -0.26463    45.055    906.70    591.83   -358.39   1354.31   6
   31.001   7812.51398   0.02710   0.51770    45.056     33.03   1219.17    427.95    826.64   6
   31.501   7812.18402  -0.10175   2.95909    45.056   -148.95   1463.79   1219.66    412.19   7
   32.000   7811.91774   0.97239   3.23695    45.056    897.60    923.10   1509.95    466.47   5
   32.500   7811.60372   2.46977   1.07854    45.057   1662.40    673.10   1157.75   1073.47   5
   33.000   7811.31705   2.07633  -0.00971    45.057   1812.00    872.70    -22.25   2291.27   5
   33.501   7811.01018   0.61556   0.07410    45.057   1012.40   1644.70    178.55   2409.47   5
   34.000   7810.72508  -0.08336   1.23328    45.057   -212.80   2552.70   1708.15   1385.07   5
   34.499   7810.38428   0.31713   2.55522    45.057    587.60   1852.90   2275.35    890.47   5
   35.000   7810.11549   1.72113   1.84770    45.057   1602.36    931.00   1867.95   1010.97   6
   35.499   7809.79760   2.63964   0.34441    45.057   1666.40    631.30    579.35   1682.27   5
   35.999   7809.52855   1.34529  -0.15022    45.057   1040.00    773.10   -298.25   1985.47   5
   36.500   7809.22484  -0.01980   0.58325    45.056    -23.47   1184.33    571.95    980.64   6
   37.000   7808.89741  -0.17271   3.81170    45.056   -159.47    923.33   1013.78    265.97   6
   37.501   7808.59641   1.64689   9.14421    45.056    402.36    244.33    825.45     90.31   6
   37.999   7808.31228 359.10058   1.08333    45.056    577.53      1.00    342.45    316.14   6
   38.499   7808.03935   6.33665  -0.34188    45.057    557.86     88.17   -304.55    890.81   6
   38.999   7807.70516   0.42647   0.01321    45.058    247.20    579.70     13.75   1040.87   5
   39.499   7807.40552  -0.19390   1.52648    45.058   -274.80   1417.30   1229.55    805.47   5
   39.999   7807.13279   0.35897   2.59993    45.058    499.86   1392.50   2210.28    850.14   6
   40.499   7806.81477   1.78666   1.66677    45.059   1614.60    903.70   2210.55   1326.27   5
   40.999   7806.54685   2.44605   0.33100    45.059   1869.00    764.10    809.95   2447.07   5
   41.499   7806.24401   1.20924  -0.06268    45.059   1316.00   1088.30   -195.45   3118.47   5
   42.000   7805.91622   0.04832   0.63514    45.059     88.53   1832.33   1241.45   1954.64   6
   42.500   7805.64680  -0.01987   2.09561    45.059    -34.64   1743.17   2213.95   1056.47   6
   42.999   7805.34282   1.11690   2.38453    45.058    924.00    827.30   2086.15    874.87   5
   43.499   7805.04105   3.09279   0.88605    45.058   1183.60    382.70   1104.95   1247.07   5
   43.999   7804.72630   2.64220  -0.10689    45.057    874.80    331.10   -192.45   1800.47   5
   44.499   7804.41985   0.35731   0.08725    45.057    205.20    574.30    109.95   1260.27   5
   44.999   7804.12925  -0.36286   1.85410    45.056   -295.40    814.10    950.15    512.47   5
   45.499   7803.83951   0.33017   3.62030    45.056    187.00    566.30   1383.15    382.07   5
   46.001   7803.54428   2.37202   1.81770    45.057    904.91    381.50   1512.52    832.19   7
   46.500   7803.25775   2.85107   0.33213    45.057   1368.20    479.90    705.55   2124.47   5
   47.000   7802.94470   1.26835  -0.05094    45.058   1162.20    916.33   -166.55   3269.97   6
   47.500   7802.66017   0.06967   0.62339    45.058    122.80   1762.70   1454.15   2332.67   5
   48.000   7802.34898  -0.00946   1.91034    45.058    -18.00   1901.50   2824.75   1478.67   5
   48.500   7802.05938   1.02772   2.10148    45.058   1131.40   1100.90   3031.75   1442.67   5
   49.000   7801.76398   2.38947   0.91011    45.058   1706.80    714.30   2050.15   2252.67   5
   49.500   7801.49946   2.00078   0.03293    45.058   1582.40    790.90    120.95   3672.87   5
   50.000   7801.16673   0.54370   0.16303    45.058    733.60   1349.30    544.75   3341.47   5
