[CRDS Header]
FileType=Wavelength Monitor Calibration
Filename=Laser2Sim.wlm
Date=20160930
Time=010838

[Parameters]
laser_current=36000.00
etalon1_offset=6000.00
reference1_offset=6000.00
etalon2_offset=6000.00
reference2_offset=6000.00

[Data column names]
0=Laser temperature
1=Wavenumber
2=Wavelength ratio 1
3=Wavelength ratio 2
4=Etalon temperature
5=Etalon 1 (offset removed)
6=Reference 1 (offset removed)
7=Etalon 2 (offset removed)
8=Reference 2 (offset removed)
9=Points averaged

[Data]
    8.000   6065.67450   0.88108   0.17630    45.000  22530.00  25571.00   5968.00  33851.00   5
    8.505   6065.44546   0.49766   0.00002    45.000  14639.20  29416.40      0.80  36735.60   5
    9.008   6065.21642   0.11697   0.17863    45.000   4048.40  34612.60   6007.60  33633.00   5
    9.509   6064.98738   0.00698   0.58316    45.000    254.00  36411.00  16497.00  28289.40   5
   10.010   6064.75834   0.24306   0.92891    45.000   7896.80  32490.80  23113.40  24882.40   5
   10.510   6064.52930   0.65922   0.97395    45.000  18017.20  27331.60  23802.60  24439.20   5
   11.009   6064.30026   0.96313   0.68833    45.000  23560.17  24462.00  18558.83  26962.67   6
   11.511   6064.07122   0.94359   0.26933    45.000  23171.80  24557.00   8578.80  31853.60   5
   12.010   6063.84219   0.61331   0.01302    45.000  16918.00  27585.00    466.40  35811.20   5
   12.511   6063.61315   0.20358   0.09735    45.000   6641.60  32624.60   3336.80  34276.80   5
   13.011   6063.38411   0.00137   0.46323    45.000     49.00  35822.20  13482.40  29105.60   5
   13.510   6063.15507   0.14779   0.85486    45.000   4919.40  33287.80  21408.20  25043.20   5
   14.011   6062.92603   0.54076   0.99830    45.000  15174.20  28061.60  23738.80  23779.20   5
   14.511   6062.69699   0.90502   0.79315    45.000  22150.00  24474.60  20189.20  25454.80   5
   15.009   6062.46795   0.98632   0.38394    45.000  23417.33  23742.17  11418.50  29741.33   6
   15.511   6062.23891   0.72709   0.05456    45.000  18850.60  25926.20   1877.60  34412.60   5
   16.011   6062.00987   0.30913   0.03787    45.000   9438.40  30532.80   1310.20  34596.80   5
   16.511   6061.78083   0.02484   0.34438    45.000    862.60  34721.80  10327.40  29989.20   5
   17.010   6061.55179   0.07277   0.75973    45.000   2461.20  33823.00  19299.80  25403.80   5
   17.511   6061.32275   0.41970   0.99347    45.000  12125.40  28891.40  23201.40  23353.80   5
   18.011   6061.09371   0.82260   0.88197    45.000  20315.60  24697.00  21333.40  24188.40   5
   18.511   6060.86467   0.99997   0.50314    45.000  23169.80  23170.60  13971.60  27769.60   5
   19.011   6060.63564   0.82758   0.12229    45.000  20286.40  24513.00   3993.80  32659.20   5
   19.511   6060.40660   0.42591   0.00553    45.000  12133.60  28489.40    190.40  34461.20   5
   20.011   6060.17756   0.07625   0.23461    45.000   2530.60  33191.60   7235.00  30839.40   5
   20.510   6059.94852   0.02283   0.64929    45.000    775.40  33970.00  16840.40  25937.00   5
   21.011   6059.71948   0.30329   0.95966    45.000   9021.80  29747.00  22215.80  23149.80   5
   21.511   6059.49044   0.72119   0.94838    45.000  18105.40  25105.20  21974.60  23170.80   5
   22.011   6059.26140   0.98453   0.62335    45.000  22470.20  22823.40  16185.40  25965.60   5
   22.509   6059.03236   0.90954   0.21319    45.000  21231.50  23343.17   6542.17  30687.83   6
   23.011   6058.80332   0.54704   0.00223    45.000  14543.80  26587.00     75.40  33821.20   5
   23.511   6058.57428   0.15252   0.14049    45.000   4783.80  31366.80   4431.20  31543.20   5
   24.009   6058.34524   0.00085   0.52893    45.000     28.67  33645.00  14079.67  26619.50   6
   24.511   6058.11620   0.19850   0.89884    45.000   6059.80  30529.20  20811.20  23153.60   5
   25.011   6057.88716   0.60681   0.98843    45.000  15577.00  25670.60  22133.40  22392.40   5
   25.511   6057.65812   0.94060   0.73630    45.000  21340.80  22688.60  17952.80  24382.60   5
   26.011   6057.42909   0.96608   0.31903    45.000  21665.40  22426.20   9150.60  28683.60   5
   26.511   6057.20005   0.66544   0.02818    45.000  16556.40  24880.60    921.40  32698.00   5
   27.011   6056.97101   0.24926   0.06742    45.000   7326.80  29395.40   2156.00  31980.80   5
   27.510   6056.74197   0.00833   0.40913    45.000    273.40  32821.60  11194.20  27361.40   5
   28.011   6056.51293   0.11137   0.81456    45.000   3466.20  31125.00  19018.80  23348.80   5
   28.511   6056.28389   0.48614   0.99978    45.000  12810.80  26352.60  21835.60  21840.40   5
   29.011   6056.05485   0.87079   0.83538    45.000  19811.80  22751.60  19243.60  23035.80   5
   29.509   6055.82581   0.99608   0.43772    45.000  21648.17  21733.33  11691.83  26711.50   6
   30.011   6055.59677   0.77413   0.08187    45.000  18114.20  23399.60   2552.60  31180.40   5
   30.511   6055.36773   0.36071   0.01980    45.000   9887.60  27412.40    634.40  32039.00   5
   31.009   6055.13869   0.04513   0.29243    45.000   1423.67  31544.17   8229.00  28141.50   6
   31.511   6054.90965   0.04711   0.71185    45.000   1480.00  31415.20  16880.80  23714.40   5
   32.009   6054.68061   0.36518   0.98145    45.000   9898.00  27105.67  21104.00  21502.83   6
   32.511   6054.45158   0.77924   0.91472    45.000  17918.20  22994.60  20055.80  21925.80   5
   33.011   6054.22254   0.99665   0.55763    45.000  21188.00  21259.20  13889.40  24908.40   5
   33.509   6053.99350   0.86748   0.16098    45.000  19211.67  22146.67   4730.50  29387.67   6
   34.011   6053.76446   0.48034   0.00039    45.000  12259.00  25522.00     12.40  31645.40   5
   34.510   6053.53542   0.10768   0.19003    45.000   3223.80  29938.80   5475.00  28813.00   5
   35.011   6053.30638   0.00945   0.59669    45.000    295.80  31302.00  14453.40  24223.20   5
   35.511   6053.07734   0.25435   0.93548    45.000   7073.80  27812.00  19980.60  21358.60   5
   36.011   6052.84830   0.67129   0.96971    45.000  15704.80  23395.40  20407.20  21044.60   5
   36.511   6052.61926   0.96820   0.67540    45.000  20319.60  20987.00  15726.00  23284.20   5
   37.011   6052.39022   0.93763   0.25823    45.000  19818.20  21136.60   7100.00  27496.00   5
   37.511   6052.16118   0.60104   0.01032    45.000  14301.20  23794.40    317.80  30786.00   5
   38.010   6051.93214   0.19379   0.10473    45.000   5449.00  28119.40   3069.40  29309.40   5
   38.511   6051.70310   0.00060   0.47574    45.000     18.40  30733.60  11814.80  24835.20   5
   39.011   6051.47406   0.15675   0.86353    45.000   4453.80  28414.80  18480.40  21401.20   5
   39.511   6051.24503   0.55319   0.99713    45.000  13233.80  23923.20  20321.20  20379.60   5
   40.011   6051.01599   0.91220   0.78296    45.000  19069.00  20904.40  17127.20  21875.20   5
   40.511   6050.78695   0.98295   0.37065    45.000  19994.00  20340.80   9486.20  25594.40   5
   41.008   6050.55791   0.71769   0.04990    45.000  15969.86  22251.86   1472.00  29500.57   7
   41.510   6050.32887   0.29782   0.04271    45.000   7811.40  26229.40   1260.00  29505.00   5
   42.011   6050.09983   0.02107   0.35641    45.000    626.20  29720.40   9085.00  25491.20   5
   42.511   6049.87079   0.07942   0.77038    45.000   2286.20  28788.80  16646.60  21608.60   5
   43.011   6049.64175   0.43206   0.99536    45.000  10598.60  24531.20  19825.20  19917.60   5
   43.511   6049.41271   0.83201   0.87380    45.000  17468.00  20995.00  18078.40  20689.40   5
   44.011   6049.18367   0.99989   0.49068    45.000  19750.00  19752.20  11673.40  23790.60   5
   44.511   6048.95463   0.81773   0.11395    45.000  17137.20  20957.20   3183.00  27933.80   5
   45.011   6048.72559   0.41343   0.00756    45.000  10080.60  24383.60    221.60  29313.00   5
   45.511   6048.49655   0.06970   0.24537    45.000   1974.80  28334.80   6408.40  26118.00   5
   46.011   6048.26751   0.02681   0.66150    45.000    773.00  28834.00  14525.00  21958.00   5
   46.511   6048.03848   0.31482   0.96441    45.000   7920.20  25158.60  18946.60  19645.80   5
   47.011   6047.80944   0.73254   0.94260    45.000  15557.60  21238.00  18589.80  19721.80   5
   47.508   6047.58040   0.98698   0.61324    45.000  19109.00  19361.00  13570.86  22130.14   7
   48.010   6047.35136   0.90153   0.20209    45.000  17905.00  19860.80   5288.20  26169.00   5
   48.511   6047.12232   0.53460   0.00121    45.000  12111.40  22655.40     34.60  28694.00   5
   49.011   6046.89328   0.14364   0.14929    45.000   3834.00  26692.40   3974.20  26622.40   5
   49.511   6046.66424   0.00185   0.54284    45.000     52.60  28480.80  12171.20  22421.60   5
   50.011   6046.43520   0.20853   0.90624    45.000   5364.00  25723.40  17714.80  19547.60   5
