[CRDS Header]
FileType=Wavelength Monitor Calibration
Filename=Laser1Sim.wlm
Date=20160930
Time=010305

[Parameters]
laser_current=36000.00
etalon1_offset=6000.00
reference1_offset=6000.00
etalon2_offset=6000.00
reference2_offset=6000.00

[Data column names]
0=Laser temperature
1=Wavenumber
2=Wavelength ratio 1
3=Wavelength ratio 2
4=Etalon temperature
5=Etalon 1 (offset removed)
6=Reference 1 (offset removed)
7=Etalon 2 (offset removed)
8=Reference 2 (offset removed)
9=Points averaged

[Data]
    8.000   6244.67450   0.61317   0.98703    45.000  17286.40  28192.00  24344.00  24664.00   5
    8.507   6244.44546   0.94654   0.72491    45.000  23601.60  24934.60  19545.40  26962.80   5
    9.011   6244.21642   0.96000   0.30407    45.000  23764.00  24754.20   9669.60  31801.40   5
    9.513   6243.98738   0.64872   0.02264    45.000  17897.20  27588.80    818.00  36128.60   5
   10.014   6243.75834   0.23331   0.07707    45.000   7613.00  32631.80   2704.00  35086.20   5
   10.515   6243.52930   0.00521   0.42806    45.000    188.80  36245.20  12813.00  29933.40   5
   11.015   6243.30026   0.12377   0.82931    45.000   4224.00  34129.00  21245.20  25618.20   5
   11.515   6243.07122   0.50566   0.99995    45.000  14587.20  28848.40  24094.00  24095.20   5
   12.015   6242.84219   0.88354   0.82074    45.000  22087.80  24999.20  20974.80  25556.20   5
   12.515   6242.61315   0.99306   0.41713    45.000  23851.80  24018.40  12406.00  29741.60   5
   13.015   6242.38411   0.75765   0.07151    45.000  19696.60  25997.20   2474.60  34608.20   5
   13.515   6242.15507   0.34200   0.02563    45.000  10439.80  30526.80    904.60  35294.60   5
   14.015   6241.92603   0.03687   0.31158    45.000   1290.40  35002.60   9609.60  30842.60   5
   14.515   6241.69699   0.05570   0.72931    45.000   1926.40  34585.40  18998.20  26049.60   5
   15.015   6241.46795   0.38533   0.98666    45.000  11453.00  29723.40  23421.80  23738.60   5
   15.515   6241.23891   0.79516   0.90355    45.000  20112.60  25293.80  22001.20  24349.80   5
   16.013   6241.00987   0.99840   0.53974    45.000  23476.00  23513.67  14983.00  27760.17   6
   16.504   6240.78083   0.85969   0.15269    45.000  21136.40  24586.00   4987.00  32660.60   5
   17.013   6240.55179   0.46224   0.00143    45.000  13161.00  28472.60     50.20  35028.20   5
   17.514   6240.32275   0.09622   0.20513    45.000   3208.60  33349.20   6502.80  31702.20   5
   18.004   6240.09371   0.01147   0.60652    45.000    397.40  34657.40  16221.60  26745.40   5
   18.513   6239.86467   0.27023   0.94408    45.000   8273.80  30618.20  22289.60  23610.00   5
   19.014   6239.63564   0.68873   0.96300    45.000  17754.00  25778.20  22526.40  23392.00   5
   19.504   6239.40660   0.97166   0.66595    45.000  22599.00  23258.20  17265.00  25925.40   5
   20.013   6239.17756   0.92876   0.24279    45.000  21853.40  23529.80   7459.80  30726.60   5
   20.514   6238.94852   0.58254   0.00687    45.000  15499.60  26607.20    235.20  34239.20   5
   21.004   6238.71948   0.18576   0.11108    45.000   5823.00  31347.60   3605.20  32456.40   5
   21.513   6238.49044   0.00004   0.49370    45.000      1.40  34156.80  13524.80  27395.20   5
   22.014   6238.26140   0.17074   0.87627    45.000   5357.60  31379.20  20751.60  23681.80   5
   22.504   6238.03236   0.56314   0.99599    45.000  14922.40  26498.80  22579.60  22670.40   5
   23.012   6237.80332   0.92130   0.76920    45.000  21356.33  23180.67  18809.50  24453.67   6
   23.514   6237.57428   0.97789   0.35304    45.000  22171.40  22672.60  10129.80  28693.40   5
   24.015   6237.34524   0.69860   0.04114    45.000  17426.60  24945.20   1356.80  32980.00   5
   24.515   6237.11620   0.28031   0.05086    45.000   8250.20  29433.00   1664.40  32726.20   5
   25.015   6236.88716   0.01589   0.37495    45.000    527.40  33194.20  10564.40  28176.20   5
   25.515   6236.65812   0.09025   0.78653    45.000   2880.60  31917.80  18831.40  23942.40   5
   26.015   6236.42909   0.45129   0.99762    45.000  12245.60  27135.20  22136.80  22189.60   5
   26.515   6236.20005   0.84638   0.86055    45.000  19719.20  23298.40  19949.80  23182.80   5
   27.015   6235.97101   0.99915   0.47128    45.000  22026.00  22044.80  12608.20  26753.60   5
   27.515   6235.74197   0.80275   0.10209    45.000  18879.00  23518.00   3201.20  31356.80   5
   28.015   6235.51293   0.39454   0.01125    45.000  10827.40  27443.60    367.60  32673.40   5
   28.515   6235.28389   0.06012   0.26229    45.000   1911.80  31801.00   7595.60  28959.20   5
   29.015   6235.05485   0.03339   0.67963    45.000   1072.40  32120.20  16565.20  24374.00   5
   29.515   6234.82581   0.33304   0.97128    45.000   9294.60  27909.20  21284.60  21914.00   5
   30.015   6234.59677   0.74950   0.93328    45.000  17694.40  23608.60  20652.80  22129.40   5
   30.515   6234.36773   0.99141   0.59217    45.000  21446.40  21632.20  14782.80  24964.00   5
   31.015   6234.13869   0.88955   0.18657    45.000  19859.20  22325.00   5504.00  29502.60   5
   31.513   6233.90965   0.51676   0.00029    45.000  13204.17  25552.50      9.33  32149.83   6
   32.015   6233.68061   0.13043   0.16322    45.000   3924.80  30091.40   4837.00  29635.00   5
   32.515   6233.45158   0.00386   0.56198    45.000    123.20  31891.20  14017.80  24944.00   5
   33.015   6233.22254   0.22453   0.91725    45.000   6429.80  28637.40  20030.20  21837.20   5
   33.515   6232.99350   0.63791   0.98058    45.000  15356.40  24073.20  20891.80  21305.60   5
   34.015   6232.76446   0.95480   0.70771    45.000  20454.80  21423.20  16544.80  23378.20   5
   34.515   6232.53542   0.95353   0.28952    45.000  20371.40  21364.20   7979.20  27560.40   5
   35.015   6232.30638   0.63499   0.01858    45.000  15157.40  23870.40    578.80  31159.60   5
   35.515   6232.07734   0.22203   0.08438    45.000   6264.60  28215.80   2538.00  30079.00   5
   36.015   6231.84830   0.00350   0.44091    45.000    109.20  31192.60  11288.40  25602.80   5
   36.515   6231.61926   0.13228   0.83877    45.000   3864.20  29213.80  18405.40  21943.40   5
   37.015   6231.39022   0.51827   0.99963    45.000  12778.20  24655.80  20691.80  20699.40   5
   37.515   6231.16118   0.89146   0.81103    45.000  19080.60  21403.80  17855.60  22016.20   5
   38.015   6230.93214   0.99084   0.40483    45.000  20436.00  20625.00  10384.00  25651.00   5
   38.515   6230.70310   0.74687   0.06520    45.000  16717.00  22383.00   1941.00  29771.20   5
   39.015   6230.47406   0.33021   0.02971    45.000   8684.00  26298.80    897.00  30192.00   5
   39.513   6230.24503   0.03289   0.32168    45.000    988.17  30045.67   8462.50  26308.33   6
   40.015   6230.01599   0.06136   0.73998    45.000   1812.00  29532.20  16440.60  22217.80   5
   40.515   6229.78695   0.39731   0.98932    45.000  10055.40  25309.00  20080.00  20296.80   5
   41.015   6229.55791   0.80503   0.89615    45.000  17354.80  21558.00  18711.40  20879.80   5
   41.515   6229.32887   0.99932   0.52580    45.000  20080.20  20093.80  12545.80  23860.80   5
   42.015   6229.09983   0.84427   0.13743    45.000  17829.20  21118.00   3861.80  28101.80   5
   42.515   6228.87079   0.44841   0.00267    45.000  10963.20  24449.40     79.80  29891.20   5
   43.015   6228.64175   0.08860   0.21583    45.000   2530.80  28564.20   5810.80  26924.00   5
   43.515   6228.41271   0.01661   0.62777    45.000    489.60  29483.20  14203.80  22626.20   5
   44.015   6228.18367   0.28279   0.95034    45.000   7340.00  25956.40  19086.00  20083.40   5
   44.515   6227.95463   0.70090   0.95784    45.000  15323.60  21863.00  19122.20  19963.80   5
   45.015   6227.72559   0.97847   0.64507    45.000  19331.80  19757.20  14351.00  22247.60   5
   45.515   6227.49655   0.92131   0.23077    45.000  18494.40  20074.00   6066.40  26288.20   5
   46.015   6227.26751   0.56941   0.00485    45.000  12950.60  22744.20    141.40  29149.00   5
   46.515   6227.03848   0.16896   0.12528    45.000   4536.40  26849.60   3432.80  27401.20   5
   47.015   6226.80944   0.00006   0.50786    45.000      1.80  29015.20  11751.80  23140.20   5
   47.515   6226.58040   0.18092   0.88492    45.000   4797.00  26515.80  17738.20  20045.00   5
   48.013   6226.35136   0.58342   0.99296    45.000  13013.33  22305.67  19118.17  19253.67   6
   48.515   6226.12232   0.92939   0.75612    45.000  18217.40  19601.60  15753.00  20834.00   5
   49.015   6225.89328   0.97373   0.34015    45.000  18735.20  19240.60   8316.60  24450.20   5
   49.515   6225.66424   0.68655   0.03611    45.000  14569.60  21221.60   1011.20  28000.80   5
   50.015   6225.43520   0.26887   0.05663    45.000   6731.80  25038.20   1564.20  27622.20   5
